OutlierMethod,RMS used,Filter Type,Filter order,low,high,
STD 2,1,Chebyshev 2,3,200,500 
CH1,CH2,CH3,CH4,CH5 
0.024628,0.003479,0.242523,0.004807,-0.000961
-0.032867,0.006912,0.278458,-0.001968,-0.003708
-0.097961,0.008377,0.168182,0.003204,0.004761
-0.133484,0.003754,-0.276947,0.005814,0.008331
-0.117828,0.001785,-0.506516,0.007416,0.004349
-0.062759,-0.001419,-0.379257,0.003250,0.002792
0.030396,-0.004944,-0.275803,0.006638,0.000961
0.061844,-0.012863,-0.219315,0.003616,0.000320
0.109131,-0.015518,-0.125839,0.005814,0.003525
0.127808,-0.008835,-0.011169,-0.004028,0.003250
0.103317,-0.010895,0.117325,-0.002609,0.000961
0.073975,-0.008743,0.134903,0.005997,0.006180
0.067566,-0.014694,0.053604,0.008011,0.007599
0.019547,-0.013687,-0.055115,0.009659,0.009933
0.036255,-0.005905,0.004349,0.007736,0.003983
0.080841,-0.009521,-0.017899,0.000870,-0.000641
0.077591,-0.001419,-0.065689,-0.013550,-0.000504
0.066330,-0.009201,-0.030441,-0.022385,0.001053
0.070312,-0.002747,0.089355,-0.020187,0.000320
-0.004028,-0.009659,0.207092,-0.007462,-0.000961
-0.149597,-0.000687,0.211258,-0.004578,-0.002335
-0.216431,-0.011993,0.164200,0.016205,-0.001511
-0.180496,-0.008469,0.160721,0.015518,0.004715
-0.086563,-0.008835,0.070404,0.007141,0.005951
-0.003662,0.000320,0.007370,0.004166,0.006546
0.046371,-0.010071,-0.084503,-0.004166,0.005951
0.011581,-0.002060,-0.125931,-0.001144,0.007233
-0.046555,-0.006958,-0.061523,-0.005264,0.006866
-0.086700,-0.009933,0.007462,-0.000412,-0.000595
-0.120667,-0.009338,-0.034470,0.003616,-0.005630
-0.128860,-0.011719,-0.116180,0.005997,-0.003067
-0.090729,-0.006821,-0.047836,-0.000732,0.005447
-0.011444,-0.000687,-0.013687,-0.005630,0.006500
0.110596,-0.002335,0.013046,-0.000687,0.004074
0.223892,-0.002792,-0.007507,-0.001923,0.001740
0.237534,0.007187,0.025864,0.005905,-0.002106
0.179443,0.005402,-0.010849,0.007278,0.004898
0.067474,0.007278,-0.050858,0.001236,0.004257
-0.007050,0.008377,-0.062759,-0.011032,-0.001602
-0.040283,-0.002792,-0.045456,-0.002151,-0.001236
-0.053604,-0.017487,0.058456,0.004944,-0.002197
-0.063812,-0.026871,0.036575,0.004990,-0.001053
-0.094162,-0.024582,-0.029800,0.001785,-0.002106
-0.168686,-0.024582,-0.062531,0.002701,-0.000229
-0.190155,-0.015884,-0.051132,0.003525,0.007462
-0.139114,-0.019455,-0.007416,0.000320,0.005310
-0.008423,-0.006729,0.090363,0.003754,0.007462
0.157013,-0.004852,0.038544,-0.005768,0.005951
0.242523,0.001602,0.026321,-0.001465,0.005859
0.275574,-0.004852,-0.047516,-0.003387,0.008011
0.224625,-0.015610,-0.108261,-0.009018,0.009750
0.107025,-0.024307,-0.096542,-0.000458,0.008377
0.015930,-0.010391,-0.054108,0.001968,0.006912
-0.046967,-0.011124,0.017899,0.007690,0.011856
-0.124786,0.000275,0.105515,0.006180,0.007828
-0.129776,0.008926,0.189011,0.000183,0.008423
-0.093109,0.018997,0.224625,0.005951,0.002151
-0.062759,0.023575,0.274017,0.009430,-0.003891
-0.052597,0.030533,0.290909,0.005264,-0.002609
-0.046555,0.041428,0.089081,0.004440,0.002609
-0.032822,0.025177,-0.186859,0.011353,0.007553
-0.019226,0.005630,-0.360489,0.011261,0.007050
0.003250,-0.023117,-0.296356,0.013733,0.007874
0.040466,-0.036942,-0.085464,0.003433,0.005905
0.044357,-0.045364,-0.068344,-0.007095,0.010757
0.005173,-0.058182,-0.248932,-0.006500,0.004532
-0.018677,-0.042984,-0.186081,-0.000412,0.005081
-0.007874,-0.032089,-0.015381,0.004166,0.002747
0.056122,-0.011627,0.110550,-0.003983,0.006638
0.101440,-0.008102,0.122772,-0.005585,0.008514
0.105377,-0.009613,0.138016,-0.005585,0.007278
0.060699,-0.005539,0.125473,-0.006180,-0.001144
0.049942,0.003250,-0.000412,-0.000412,-0.002975
0.015472,0.009384,-0.187454,0.004257,-0.003799
-0.029205,0.017075,-0.173996,0.003250,-0.006042
-0.055435,0.014236,-0.057266,0.001648,-0.005585
-0.126617,0.005722,0.055573,0.003525,-0.001190
-0.220917,-0.010162,0.083221,0.001465,-0.001419
-0.240784,-0.030624,0.105331,0.002151,-0.002930
-0.158432,-0.029343,0.082306,-0.000687,0.003983
-0.036530,-0.030350,0.108307,-0.000366,0.005630
0.095490,-0.011765,0.093155,-0.003204,0.000092
0.148224,-0.007599,0.002518,0.000320,-0.000320
0.109680,0.004532,-0.055984,-0.005081,0.001785
0.052551,0.005722,-0.063126,-0.008514,0.008377
0.014465,0.010208,0.064453,-0.007507,0.000320
-0.031494,0.018036,0.136642,-0.001328,-0.001190
-0.044220,0.009293,0.216705,-0.001236,-0.000412
0.004578,0.004623,0.220596,0.004944,-0.000870
-0.004761,0.001419,0.137970,0.007919,0.003891
-0.067062,-0.003571,-0.073380,0.004990,0.008057
-0.081207,-0.003891,-0.074387,0.002472,0.007416
-0.061432,-0.004623,-0.097916,0.005859,0.008011
-0.026917,-0.009476,-0.227829,0.006317,0.007416
0.032318,-0.001236,-0.158340,-0.002701,0.002975
0.095947,0.002518,-0.074387,-0.000046,-0.001923
0.136963,0.003891,-0.239868,-0.003296,-0.003159
0.172943,0.002060,-0.316315,0.005585,0.006180
0.138519,0.012039,-0.108078,0.000870,0.005814
0.092651,0.010574,-0.041611,0.000229,0.008057
0.041016,0.004074,-0.002609,0.015472,0.010941
-0.039047,0.008331,0.056671,0.006821,0.005768
-0.097046,0.007004,0.110504,-0.011169,-0.000412
-0.106888,-0.005173,0.097275,-0.022202,-0.002243
-0.045181,-0.013138,0.094070,-0.013733,-0.002014
-0.032913,-0.018723,0.121353,-0.001740,0.007462
-0.042343,-0.009750,0.081894,-0.000183,0.004898
-0.080154,-0.020187,-0.024033,0.010529,-0.004074
-0.124878,-0.001740,-0.055984,0.002701,-0.000320
-0.115082,-0.008102,-0.010300,0.004349,0.007095
-0.010254,0.002792,0.101761,0.001968,0.009613
0.111145,-0.003891,0.114578,0.001236,-0.002747
0.143280,-0.005768,0.064545,0.006454,-0.002609
0.111649,-0.013229,0.017441,0.008194,0.002060
0.094482,-0.007736,-0.026779,0.001785,0.003433
0.108948,-0.022018,-0.007416,0.006683,0.009842
0.063812,-0.023117,0.017120,0.001694,0.006821
0.012131,-0.033279,-0.007187,0.000961,-0.002975
-0.031998,-0.030487,-0.022018,0.003525,-0.004211
-0.062988,-0.035110,0.015564,-0.000412,-0.003891
-0.098145,-0.026596,0.016937,0.002060,-0.002243
-0.074982,-0.011765,0.016159,-0.002975,0.002151
-0.027008,0.005630,-0.011124,0.002701,0.006180
0.066193,0.004532,-0.125656,-0.002106,0.009109
0.086060,0.005493,-0.167633,0.003250,0.007919
0.037857,0.002151,-0.155228,-0.003387,0.004715
0.019592,0.002060,-0.059738,0.002426,0.001694
0.018219,0.005219,0.026093,0.009064,-0.001511
0.026642,-0.007324,0.077225,0.015518,-0.002975
-0.018356,0.003937,0.089447,0.003525,-0.000961
-0.036530,0.002518,0.036530,-0.003708,0.000320
-0.035889,0.015793,0.047195,-0.010529,0.005173
-0.042480,0.015976,0.115265,-0.014328,0.004898
-0.077087,0.017120,0.186447,-0.008743,0.004257
-0.109863,0.015152,0.229111,-0.004807,0.002930
-0.082489,0.012314,0.181778,-0.002609,0.007278
-0.070679,-0.001694,0.021515,0.003204,0.008743
-0.054474,-0.010712,-0.207321,0.013504,0.005585
0.000870,-0.011948,-0.179123,0.001785,-0.005356
0.051727,-0.022705,-0.224625,0.006180,-0.003616
0.125793,-0.023209,-0.246414,0.003067,-0.003616
0.150009,-0.027878,-0.208603,0.002060,0.002609
0.098511,-0.021378,-0.132065,0.002701,0.006683
-0.001328,-0.013870,-0.094711,0.000320,0.009109
-0.048615,-0.004211,-0.127991,-0.001053,-0.000412
-0.056763,0.000320,-0.000412,-0.004349,0.002930
-0.057678,0.009293,0.118744,-0.004807,0.006454
-0.056396,0.012039,0.153076,-0.003571,-0.004303
-0.045822,0.013779,0.153671,-0.000961,0.006180
-0.003571,0.006363,0.142593,0.001785,0.005905
0.030167,0.007599,0.101486,0.000320,0.004578
0.022568,0.001511,0.123688,-0.000870,0.009109
0.001877,-0.002609,0.130234,0.002151,0.008011
-0.017899,-0.007095,0.019135,-0.000229,0.005447
-0.027008,-0.013321,-0.139389,0.006180,-0.001602
-0.020874,-0.011215,-0.225494,0.003067,0.004578
0.022339,-0.000778,-0.213638,0.004257,0.008789
0.072281,-0.001144,-0.121628,0.002243,0.002975
0.093521,-0.004807,0.054611,0.001236,0.005081
0.032547,-0.015976,0.206863,0.003159,0.006546
-0.001373,-0.018356,0.247787,0.000320,0.008926
-0.035248,-0.017624,0.219864,-0.002060,0.009842
-0.053101,-0.030350,0.151199,0.002472,0.008469
-0.070450,-0.016891,-0.012405,0.002701,0.005722
-0.043625,-0.014603,-0.135269,-0.009109,-0.002609
0.001282,-0.004623,-0.125290,-0.004440,0.001236
0.025909,0.006134,-0.107391,-0.011993,0.007462
0.101257,-0.003754,-0.083862,-0.000320,0.003983
0.116455,-0.006134,0.025955,0.005539,-0.000046
0.075943,-0.006821,0.103226,0.003799,0.007828
0.016937,0.001694,0.043991,-0.000504,0.005264
-0.022614,-0.006638,0.044403,0.003983,0.003799
-0.041107,0.006683,-0.049942,0.001831,0.000183
-0.028656,-0.002609,-0.237259,0.002151,0.001419
-0.040466,-0.004074,-0.309494,-0.001328,-0.000046
-0.079880,0.000320,-0.129684,0.002335,-0.001740
-0.096634,-0.010666,0.019547,-0.002609,0.003525
-0.113297,-0.005814,0.075531,0.005676,0.006134
-0.093430,-0.001190,0.088120,0.000320,0.007736
-0.055893,0.011124,0.101532,0.001511,0.006134
-0.026093,0.005127,0.123917,-0.000549,0.003799
-0.055389,0.009659,0.034927,0.003159,0.003983
-0.041565,0.007187,-0.091599,-0.000412,0.005630
-0.039276,0.010941,-0.108078,0.005585,0.009109
0.046326,0.007095,-0.077042,0.001419,0.009201
0.210251,-0.000137,-0.045273,0.005997,0.008926
0.326752,-0.002060,-0.024582,-0.000961,0.009064
0.307480,-0.007324,-0.058640,0.006180,0.010208
0.139023,-0.012131,0.010941,-0.000824,0.007690
-0.053467,-0.021378,0.118652,0.004028,0.006134
-0.127441,-0.027145,0.203384,-0.003616,0.007599
-0.117737,-0.034836,0.233002,-0.004166,0.005219
-0.075165,-0.034561,0.219955,-0.002975,0.009109
-0.078781,-0.038361,0.117508,-0.001373,0.007187
-0.040283,-0.022568,-0.045822,0.002563,0.009659
0.013596,-0.024490,-0.245407,0.005585,0.010117
0.058731,-0.001968,-0.288895,0.003250,0.009476
0.103638,0.003937,-0.110001,0.002701,0.005997
0.054382,0.006546,0.112015,0.002289,-0.001007
-0.047241,0.002975,0.179581,-0.001328,-0.003525
-0.097961,-0.002792,0.052231,-0.000916,0.001877
-0.143921,0.013870,0.014511,-0.004761,-0.003983
-0.131607,0.016937,-0.108673,-0.000870,-0.000870
-0.000641,0.010574,-0.206818,-0.002930,0.000732
0.154907,0.000961,-0.163010,0.003937,0.004623
0.245132,-0.002197,-0.028793,-0.005585,0.009109
0.249023,-0.011765,0.073746,0.004395,0.009109
0.120712,-0.005127,0.065277,0.001190,0.007050
-0.057037,0.008194,0.012451,0.005081,0.002792
-0.155045,0.000092,0.015335,0.001694,0.003799
-0.157425,0.002792,0.024948,0.006454,0.002975
-0.118652,-0.010025,-0.107162,0.010483,0.005814
-0.052734,-0.014648,-0.239960,0.013870,0.010208
0.013046,-0.020187,-0.139160,-0.011398,0.005173
0.016388,-0.014877,0.043671,-0.025223,0.005859
0.007828,0.006454,0.124786,-0.013596,0.010757
0.007507,0.019501,0.169693,-0.005997,0.010574
-0.023163,0.028610,0.194366,-0.002701,0.007645
-0.025589,0.007462,0.171570,0.001785,0.006546
-0.043350,0.002609,0.112198,0.007690,0.006134
-0.120758,-0.021561,0.085556,0.008926,0.003250
-0.137421,-0.030167,0.140945,0.006500,-0.000961
-0.085144,-0.025269,0.098419,0.004120,-0.001511
0.004807,-0.030899,-0.007965,0.002518,-0.004990
0.077087,-0.027237,0.008331,-0.001236,-0.002197
0.088531,-0.046738,-0.056122,0.001785,-0.001144
0.084961,-0.043350,-0.204254,-0.001373,-0.003159
0.116592,-0.036026,-0.238586,0.001511,0.001877
0.171249,-0.021378,-0.329819,-0.007095,0.003433
0.215012,-0.005722,-0.351425,0.001144,0.006500
0.164383,0.003799,-0.206360,-0.003708,0.010574
0.022385,0.024628,0.021973,0.001602,0.006500
-0.115997,0.029617,0.213867,-0.001923,0.004898
-0.216522,0.040878,0.246597,0.001877,0.007919
-0.246918,0.030167,0.153488,0.001694,0.007004
-0.162552,0.028061,0.007828,0.000320,0.010117
-0.044769,0.002975,0.023529,0.002014,0.007919
0.096680,-0.027740,0.016251,-0.002335,0.009338
0.137695,-0.051041,-0.005539,0.007278,0.007919
0.058777,-0.066147,0.131607,0.007095,0.006912
0.029617,-0.045639,0.261063,0.001511,0.008240
-0.022705,-0.030533,0.307297,-0.003983,0.007553
-0.062210,0.006409,0.272415,-0.005539,0.006363
-0.110779,0.014236,0.053421,-0.002014,0.006409
-0.156647,0.033646,-0.263580,-0.009018,0.007553
-0.090958,0.025909,-0.345749,0.000320,0.007645
-0.029068,0.033646,-0.266373,-0.010757,0.009064
-0.005264,0.024902,-0.171982,0.001282,0.006454
-0.035156,0.021286,-0.255478,0.002518,-0.001099
-0.099060,-0.002060,-0.277725,0.004532,-0.001328
-0.137238,-0.015884,-0.203339,0.005081,-0.002289
-0.096405,-0.036850,0.016800,0.002060,-0.002838
-0.029663,-0.041336,0.239456,0.004120,-0.000046
0.172211,-0.035385,0.399902,0.003067,0.000183
0.338745,-0.010529,0.439590,0.014145,-0.002106
0.280975,0.007828,0.337234,0.010849,-0.004074
0.218674,0.026047,0.147079,0.003479,0.002655
0.214142,0.041336,0.063492,-0.000778,0.009430
0.180725,0.035751,-0.102310,-0.002380,0.005447
0.128174,0.018402,-0.287704,0.001877,0.002060
0.052414,0.002151,-0.342682,-0.004166,0.000320
-0.081482,-0.021378,-0.369690,-0.006546,-0.005539
-0.240143,-0.043945,-0.348083,0.005264,0.003021
-0.274384,-0.061752,-0.178024,0.002609,0.000320
-0.192856,-0.054840,0.013138,0.000320,0.004349
-0.049393,-0.033096,0.127441,-0.000458,0.007553
0.073883,-0.020462,0.186676,-0.006226,0.009567
0.092468,0.010757,0.287888,-0.009933,0.011353
0.063034,0.040512,0.247696,-0.006226,0.011078
-0.037537,0.046097,0.116318,-0.003891,-0.000275
-0.194778,0.020828,0.062576,0.007736,-0.003525
-0.258453,0.006134,-0.068481,0.019867,-0.000916
-0.212219,-0.010574,-0.066833,0.004623,0.005356
-0.050537,-0.009659,-0.083588,0.001831,0.007278
0.111923,-0.008698,-0.016754,-0.005676,0.007690
0.262939,0.002838,0.144974,-0.001877,0.005264
0.258774,0.004166,0.108261,-0.004074,0.002609
0.147354,0.006454,-0.005356,-0.003296,0.001328
0.062805,0.014969,-0.124283,-0.001144,0.001877
-0.013367,-0.000595,-0.144699,-0.003571,-0.001190
-0.079559,-0.009430,-0.200729,0.003433,-0.001556
-0.078873,-0.020370,-0.154083,0.001328,-0.000778
-0.090088,-0.011078,0.017624,0.002701,-0.003250
-0.113892,0.001877,0.046692,-0.004257,-0.001602
-0.033279,0.019821,0.046875,0.002060,0.003250
0.060287,0.029251,0.092056,0.003708,0.001877
0.084824,0.025726,0.116959,0.008469,0.003754
0.026779,0.018173,0.081482,0.020645,0.003525
-0.077728,-0.012497,-0.092514,0.013367,-0.002335
-0.128494,-0.042618,0.016113,0.005951,-0.001968
-0.080475,-0.067062,0.128311,-0.010849,-0.003799
-0.022614,-0.072052,0.138931,-0.006409,0.001053
0.003891,-0.045181,0.122635,-0.004074,0.006363
-0.012863,-0.006042,-0.011765,-0.014328,0.009659
0.011353,0.019638,-0.162598,-0.026047,0.007507
0.059418,0.039871,-0.183426,-0.019089,0.006363
0.103638,0.033646,-0.095352,0.005630,0.000320
0.127991,0.013596,-0.004166,-0.002609,-0.004166
0.125748,0.003616,0.122543,0.000320,-0.004166
0.044449,-0.002335,0.264542,0.018311,0.003754
0.038177,-0.010986,0.093750,0.020828,-0.001602
0.022156,-0.031036,-0.044540,0.010208,0.007553
0.006454,-0.043991,0.106613,0.005264,0.006866
-0.050903,-0.036209,0.123917,-0.011948,-0.001236
-0.114166,-0.029526,-0.117050,-0.008743,-0.004395
-0.141541,-0.024673,-0.283859,-0.007187,0.002701
-0.120941,-0.044907,-0.206680,0.001602,0.008698
-0.093796,-0.040009,-0.014465,0.002609,0.010345
-0.030533,-0.038086,0.060013,0.006180,0.011581
-0.008698,-0.015884,-0.143234,0.003021,0.009842
-0.054291,-0.007233,-0.156418,0.006729,0.009521
-0.029480,0.023666,-0.128906,-0.008286,0.008652
0.047974,0.050674,0.025635,-0.006500,0.007187
0.181274,0.064178,0.143051,-0.006317,0.004211
0.375320,0.057129,0.250259,0.004715,0.003708
0.328445,0.044495,0.270264,0.011307,0.002975
0.281570,0.026459,0.059830,0.007370,0.002060
0.110687,-0.001190,-0.232910,0.000320,-0.000229
-0.047791,-0.033463,-0.328308,-0.006729,0.000961
-0.164932,-0.058365,-0.129044,-0.002243,0.003891
-0.237671,-0.056213,0.292282,-0.003571,0.002380
-0.250122,-0.032181,0.315353,-0.003799,0.007187
-0.199677,-0.016388,0.186264,-0.004807,0.004257
-0.165161,0.007416,-0.113937,-0.003799,0.001740
-0.132568,0.019913,-0.191299,0.001602,0.001236
-0.110092,0.023117,-0.099976,0.003159,-0.004990
-0.081161,0.016205,-0.207733,0.006866,-0.000504
-0.124832,0.018631,-0.283035,0.002975,0.008331
-0.201462,0.007553,-0.152206,0.016434,0.004715
-0.187317,-0.009659,-0.018173,0.008423,0.007645
-0.047653,-0.025177,0.068207,-0.001877,0.006134
0.146347,-0.014282,0.037445,-0.006134,0.002975
0.234009,0.005356,-0.071777,-0.014511,-0.001877
0.271042,0.018906,-0.142227,-0.009521,-0.005630
0.294846,0.012634,-0.119064,-0.009842,0.001877
0.268158,0.009659,-0.054153,-0.006409,0.004990
0.215561,0.004120,0.048889,-0.002701,0.008423
0.147308,-0.006088,0.183975,0.002060,0.006363
0.081573,-0.000687,0.332794,-0.004990,0.008194
0.017944,-0.002151,0.366119,-0.009933,0.011032
-0.095627,-0.013824,0.268204,-0.002197,0.009201
-0.166489,-0.006454,0.187042,0.006180,0.005814
-0.168640,0.005997,0.148956,0.008560,0.007553
-0.147629,-0.021149,0.070450,0.020096,0.008560
-0.118423,-0.031631,0.061752,0.012543,0.002975
-0.065826,-0.051041,-0.027695,0.005951,0.001419
-0.034149,-0.048431,-0.013229,-0.001419,-0.004486
-0.055069,-0.026047,0.011581,0.001328,-0.003342
-0.076630,0.004578,-0.141129,0.009338,-0.003159
-0.102127,0.015701,-0.358887,0.002975,-0.003067
-0.147125,0.010574,-0.362869,0.004211,-0.001785
-0.086151,-0.027008,-0.308670,0.003067,0.000275
0.033051,-0.066650,-0.116867,0.008194,-0.004166
0.094070,-0.087570,0.083084,0.005951,-0.003525
0.098923,-0.054382,0.180084,-0.001602,-0.002151
0.079376,-0.002014,0.193314,0.002563,0.004578
-0.049805,0.065918,0.226913,0.001923,0.009750
-0.150513,0.119156,0.178436,-0.006729,0.008331
-0.241974,0.127670,0.170792,-0.004852,0.010986
-0.269943,0.083633,0.146347,0.007507,0.007645
-0.102539,0.025635,-0.275116,0.008240,0.006134
0.078827,-0.006775,-0.631302,0.007187,0.010254
0.260971,-0.024673,-0.485939,-0.006500,0.006180
0.338333,-0.046555,-0.340576,-0.001968,0.008926
0.397614,-0.056900,0.067383,-0.002060,0.008560
0.357376,-0.066696,0.242935,0.013504,0.008331
0.317139,-0.081802,0.114990,0.013138,0.004303
0.145889,-0.085052,0.035477,0.004257,0.000320
0.040558,-0.074203,0.091141,-0.001465,-0.003571
-0.055344,-0.051910,0.197525,-0.004623,-0.002060
-0.124420,-0.027145,0.342407,-0.003754,-0.000687
-0.179352,0.004715,0.297775,-0.013870,-0.004440
-0.164703,0.044769,0.126984,-0.023758,0.001053
-0.183243,0.085648,-0.110641,0.002426,0.001190
-0.153580,0.108582,0.052414,0.003250,0.000275
-0.065140,0.095764,0.324738,0.001648,-0.002838
0.055298,0.076767,0.439774,-0.007187,-0.000870
0.141357,0.030533,0.368912,-0.020370,0.000229
0.158203,-0.024582,0.142181,-0.015701,-0.002884
0.060150,-0.065781,-0.228424,0.003891,-0.003525
-0.083633,-0.074844,-0.499557,0.015610,-0.002518
-0.137421,-0.083084,-0.638924,0.018127,-0.001602
-0.136597,-0.083176,-0.513874,0.021378,0.002335
-0.132935,-0.041245,-0.388824,0.009109,0.003250
-0.096497,0.016525,-0.165985,0.003616,0.003250
-0.118561,0.064407,0.074066,-0.005219,0.005402
-0.112701,0.069168,0.211258,-0.009155,0.003250
-0.091507,0.070633,0.143234,-0.011398,0.009476
-0.067154,0.040649,0.136963,-0.016159,0.008560
-0.055893,-0.010162,0.084961,-0.009933,0.004944
-0.020096,-0.059280,0.008102,-0.004166,0.007004
0.136597,-0.082993,0.008377,0.023666,0.007645
0.291138,-0.075485,0.074341,0.018814,0.007645
0.377930,-0.054611,0.131241,0.009659,0.008743
0.300110,-0.036301,0.181366,0.006592,0.010483
0.186859,-0.002884,0.174545,0.003067,0.010300
0.059692,0.034882,0.200226,-0.001007,0.008560
-0.066010,0.056992,0.216660,-0.013046,0.005951
-0.213089,0.069992,0.281570,-0.012497,-0.000137
-0.318604,0.075806,0.268250,-0.013641,-0.002243
-0.374313,0.075760,0.161453,-0.015701,0.000320
-0.335678,0.094070,0.017532,-0.010941,0.002792
-0.179993,0.120941,-0.072922,0.006180,0.001694
0.039642,0.118057,-0.151703,0.011902,0.000137
0.250534,0.084595,-0.411530,0.010986,-0.002289
0.319016,0.031586,-0.372116,0.004761,0.001602
0.220459,-0.045364,-0.098373,0.000732,0.011856
0.057770,-0.137375,0.001099,0.006180,0.012863
-0.002243,-0.196426,-0.155640,0.001602,0.001511
-0.037262,-0.216568,-0.111603,0.003204,-0.000046
-0.028107,-0.204163,0.102402,0.001740,-0.001740
0.058640,-0.153717,0.135452,0.003525,-0.002106
0.107483,-0.087204,0.105423,0.009476,-0.001556
0.071503,-0.024445,-0.009933,0.012222,0.003754
-0.083038,0.014969,-0.132156,0.001328,0.000961
-0.237854,0.053558,-0.279831,-0.002884,0.006683
-0.348083,0.074066,-0.304688,-0.020370,0.006958
-0.332977,0.091507,-0.201736,-0.012268,0.011078
-0.241562,0.111328,0.033325,-0.016708,-0.001053
-0.184753,0.109955,0.232864,-0.009109,-0.005264
-0.128311,0.088211,0.197342,-0.003204,-0.005630
-0.063126,0.041565,0.092606,0.004715,-0.005219
0.129913,-0.018173,0.146439,0.010162,-0.003662
0.334808,-0.043945,0.250854,0.001144,-0.003799
0.380127,-0.023117,0.423660,-0.001282,-0.001007
0.308945,-0.008102,0.434647,0.008377,-0.001190
0.214233,0.020599,0.296860,0.008560,-0.003799
0.195007,0.026047,0.179031,0.012680,-0.005356
0.319061,0.015564,0.064087,0.014969,-0.001328
0.359985,-0.005585,-0.045044,0.004715,-0.005768
0.242432,-0.035110,-0.113937,-0.014969,0.001785
0.068710,-0.060928,-0.193680,-0.012726,0.005081
-0.149048,-0.117142,-0.686119,-0.006409,0.000275
-0.267288,-0.127213,-0.948109,0.001465,-0.001602
-0.276672,-0.128998,-0.798494,0.018677,-0.001465
-0.232864,-0.092743,-0.648880,0.004623,-0.003799
-0.118469,-0.053009,-0.104645,-0.000092,-0.003937
-0.028381,-0.006592,0.277679,0.015381,0.002014
-0.041245,0.019913,0.466690,0.011719,0.007965
-0.003571,0.018082,0.493973,-0.005219,0.007645
-0.008698,0.014969,0.417435,-0.000412,0.008835
-0.083725,-0.003159,0.452133,-0.005173,0.004944
-0.127579,0.000320,0.324966,-0.007736,0.000320
-0.176697,0.010391,0.294983,-0.010895,-0.006317
-0.215332,0.040237,0.378845,-0.014328,-0.004440
-0.221695,0.059555,0.221466,-0.013824,-0.000412
-0.203247,0.098465,-0.088623,-0.005630,0.004440
-0.114716,0.117508,-0.405533,0.004211,0.007416
0.000000,0.124466,-0.442245,0.001328,0.005127
0.150009,0.105560,-0.234695,0.009521,0.000320
0.305008,0.073380,-0.125153,0.001328,0.003250
0.382370,0.011124,-0.130508,0.004807,0.006592
0.348633,-0.046783,-0.081985,0.010117,0.002380
0.351883,-0.082352,0.125702,0.007004,0.004807
0.330139,-0.114395,0.429932,0.009750,0.006958
0.275391,-0.091553,0.539383,-0.003754,0.004715
0.170242,-0.060104,0.572754,-0.008743,-0.000046
0.102859,-0.052414,0.429794,-0.003387,-0.001007
-0.043625,-0.065826,0.324188,-0.001465,0.002518
-0.214691,-0.060196,0.110779,-0.010025,0.009064
-0.359161,-0.028656,-0.371704,-0.014877,0.010437
-0.421898,-0.009979,-0.606651,-0.006409,0.008514
-0.422161,0.028244,-0.506413,-0.010757,0.008469
-0.336416,0.039001,-0.406174,0.013321,0.003662
-0.250671,0.057404,-0.094391,0.008011,-0.001831
-0.089493,0.080795,0.047195,0.003250,-0.003296
0.010483,0.094070,0.102036,0.004349,-0.001877
0.083359,0.085556,0.189972,0.006363,-0.000183
0.121399,0.041290,0.201828,0.020508,0.000916
0.173401,-0.034607,0.238174,0.033142,0.004578
0.248795,-0.077362,0.422195,0.028839,0.006546
0.214600,-0.071503,0.274429,0.004990,0.006500
0.130875,-0.028061,-0.077133,-0.013870,0.006592
-0.035294,0.003021,-0.242020,-0.009842,0.003891
-0.132111,0.011307,-0.183563,-0.007782,0.003250
-0.130005,-0.039871,-0.407455,0.001328,-0.000824
-0.037674,-0.082443,-0.425102,0.003113,-0.002426
-0.049530,-0.100662,-0.442749,0.003159,-0.002014
0.026550,-0.097321,-0.283813,0.011215,-0.001602
0.214828,-0.035522,0.090958,0.008514,-0.000549
0.338058,0.035248,0.420547,-0.001465,-0.002106
0.340027,0.094620,0.488068,-0.017487,-0.003433
0.212723,0.117279,0.358978,-0.005127,-0.002609
0.055847,0.121353,0.269989,-0.007370,-0.000961
-0.041473,0.091141,0.151520,-0.007919,0.004349
-0.179901,0.063217,0.127625,-0.008148,-0.001419
-0.298828,0.038727,0.215515,-0.021446,0.000320
-0.350327,0.016251,0.197845,-0.018253,0.002335
-0.287979,0.002426,0.207230,-0.015060,0.007141
-0.132706,-0.019730,0.242249,-0.001465,0.006363
0.017944,-0.076538,0.406036,0.002930,0.002289
0.157059,-0.119980,0.368408,0.006454,-0.001236
0.122864,-0.153168,-0.099289,0.014099,-0.000229
0.092148,-0.168732,-0.604111,0.018517,0.007599
0.039734,-0.200912,-0.574585,0.022934,0.009018
0.030853,-0.183975,-0.545059,0.013962,0.005997
-0.046143,-0.123505,-0.191757,0.007553,0.007095
-0.120575,-0.067337,0.023163,-0.003571,0.005630
-0.150055,0.032181,0.053650,-0.003708,0.003937
-0.230804,0.095764,0.012634,-0.000961,-0.002609
-0.189194,0.153030,-0.179077,0.012039,-0.004028
-0.013321,0.175873,-0.150055,-0.004761,0.000320
0.313110,0.218170,0.116638,-0.018173,0.003021
0.390266,0.237076,0.278366,-0.018677,0.007736
0.358555,0.201508,0.293976,-0.002609,0.006134
0.326843,0.092651,-0.076263,0.032227,0.005951
0.081299,-0.025040,-0.511230,0.033371,-0.001099
-0.041290,-0.113846,-0.353897,0.027100,0.000183
-0.065826,-0.141220,-0.070267,0.020828,-0.000046
-0.064041,-0.121490,0.007828,0.002701,0.001328
-0.020370,-0.049484,0.144836,-0.010986,0.004349
-0.030853,0.012131,0.397888,-0.004395,0.001694
-0.146713,0.006363,0.511734,-0.005814,-0.003799
-0.235153,-0.041199,0.386124,-0.006546,-0.005539
-0.310181,-0.111237,0.061569,-0.005310,-0.001328
-0.256210,-0.143829,-0.477997,-0.008057,0.001236
-0.189285,-0.128494,-0.376099,-0.011856,0.002197
-0.129456,-0.065918,0.160355,-0.009750,0.003754
-0.058502,0.018585,0.469070,-0.007919,0.006180
0.039413,0.066376,0.593491,0.017029,0.006363
0.140076,0.086426,0.377884,0.017578,0.004669
0.203293,0.073975,-0.187180,0.003113,0.004578
0.233414,0.038681,-0.645172,-0.010757,0.005539
0.220871,-0.015701,-0.634918,-0.013824,-0.002792
0.187134,-0.051086,-0.245178,-0.004395,0.008926
0.072876,-0.082169,0.053192,0.002197,-0.001877
-0.074707,-0.123596,-0.096954,-0.000046,-0.003525
-0.225586,-0.103867,-0.412949,-0.008011,0.007874
-0.402466,-0.077133,-0.296173,-0.013779,0.005264
-0.347351,-0.032547,0.139572,-0.013779,0.000870
-0.292236,0.028381,0.310501,-0.015656,0.012360
-0.135498,0.089722,0.203659,-0.014191,0.005539
0.073654,0.120163,0.068893,-0.012772,0.003616
0.266876,0.157837,0.296173,-0.010071,0.011032
0.286835,0.174637,0.507843,-0.003983,-0.000229
0.249710,0.164795,0.562820,0.009293,-0.003571
0.115128,0.147720,0.140717,0.010986,0.003525
0.021240,0.087067,-0.422333,0.010162,0.007004
-0.027832,0.033051,-0.521072,0.013504,-0.000046
-0.017670,-0.048569,-0.377930,0.002151,0.007187
0.005951,-0.105469,-0.042572,0.012268,0.005081
0.072327,-0.152710,0.343826,0.012497,-0.003021
0.158524,-0.176331,0.514297,0.009247,-0.001923
0.268478,-0.136459,0.253143,0.005951,0.006226
0.347580,-0.108948,-0.451035,0.011902,0.009888
0.284981,-0.087936,-0.464241,0.010483,0.001099
0.222382,-0.061890,-0.477448,0.006866,0.004166
0.063354,-0.034882,-0.015701,0.007553,0.005859
-0.051270,0.006592,0.137650,0.000870,0.008011
-0.102173,0.046509,0.064774,-0.003891,-0.001328
-0.072510,0.065460,-0.267883,0.000961,-0.001968
-0.113251,0.082077,-0.339478,0.003479,-0.000778
-0.208557,0.074707,-0.178253,-0.001282,0.005310
-0.318741,0.047104,0.089767,-0.025223,0.008698
-0.374565,0.003113,0.201279,-0.030121,0.008102
-0.379612,-0.031265,0.272690,-0.027100,0.004349
-0.384659,-0.054245,0.398758,-0.009476,0.002792
-0.351242,-0.041656,0.604523,0.015244,0.001694
-0.287018,-0.025818,0.618736,-0.007416,0.006454
-0.161453,-0.000870,0.632950,-0.002060,0.008514
0.099380,0.010849,0.568954,0.001740,0.009750
0.322632,0.039551,0.244446,-0.009659,0.009384
0.367493,0.049484,-0.354858,-0.006500,0.009109
0.349434,0.040146,-0.305786,0.004257,0.005219
0.331375,0.003113,-0.183884,0.006226,0.007828
0.287476,-0.036118,-0.090500,0.012817,-0.000320
0.212631,-0.039413,-0.365845,0.006500,-0.000778
0.105560,-0.009521,-0.518555,0.013321,0.003342
-0.005585,0.007828,-0.486420,0.008926,0.006454
-0.123138,0.016891,-0.429337,0.014282,0.005997
-0.240417,0.022568,-0.166672,0.001877,0.008743
-0.376465,0.007645,0.070450,-0.016251,0.004440
-0.335403,0.012039,0.080154,-0.008835,-0.003296
-0.285645,-0.014877,-0.001144,-0.007462,-0.000504
-0.257675,-0.054977,0.092239,-0.009018,-0.004303
-0.174911,-0.078781,0.167267,-0.006088,0.001373
-0.007965,-0.027878,-0.075394,0.013504,0.001785
0.069992,0.014969,-0.186447,0.033142,0.008240
0.083954,0.046097,-0.115448,0.031082,0.010757
0.101898,0.095398,0.015381,-0.004715,0.004807
0.130875,0.142822,0.267746,-0.021561,-0.000092
0.214691,0.166763,0.377655,-0.007553,0.006454
0.376694,0.128036,0.207870,-0.010391,0.003433
0.292923,0.040924,0.134674,0.000275,-0.002060
0.209152,-0.071548,0.059143,0.000320,-0.000641
-0.072418,-0.142044,-0.210022,0.002792,-0.004532
-0.224716,-0.177887,-0.302994,0.002380,-0.000687
-0.257812,-0.164841,-0.194321,0.007782,0.004486
-0.306473,-0.142685,-0.012177,0.014923,0.002151
-0.321350,-0.109177,0.068848,0.016800,0.002426
-0.203064,-0.101578,0.301025,0.011307,0.004990
-0.026001,-0.081207,0.448700,-0.006363,-0.002609
0.143188,-0.015381,0.558838,-0.010025,-0.001282
0.368774,0.027740,0.497360,-0.017487,-0.002106
0.385872,0.008835,0.435883,-0.020874,0.001236
0.402969,-0.002518,-0.233414,-0.009155,-0.003250
0.228882,-0.004761,-0.584061,-0.004211,-0.000732
0.041016,0.001694,-0.765175,0.010208,0.000320
-0.104462,0.045181,-0.779995,-0.001831,0.000320
-0.145889,0.046417,-0.644903,-0.015793,0.001236
-0.138657,0.057358,-0.509811,-0.009888,-0.003845
-0.193359,0.059372,-0.098007,-0.008743,-0.003067
-0.232498,0.070633,0.191574,-0.005814,-0.001694
-0.248291,0.065506,0.349228,0.006454,0.002930
-0.222748,0.044769,0.415375,0.026962,0.000000
-0.159531,-0.000504,0.310867,0.017212,-0.002426
-0.071777,-0.026459,-0.059372,0.013184,-0.002106
0.026550,-0.041885,-0.095993,0.017670,-0.003159
0.214325,-0.003983,0.103546,-0.001602,-0.000137
0.366531,0.046738,0.321533,0.005127,-0.001373
0.364380,0.024445,0.462067,0.002975,-0.004211
0.362228,-0.050079,0.609695,-0.007462,-0.002838
0.210709,-0.122040,0.522125,-0.002243,-0.000504
0.084595,-0.136688,0.285828,-0.010117,0.000916
-0.007645,-0.107117,-0.105331,-0.016754,-0.002701
-0.095947,-0.036896,-0.171066,-0.005768,-0.003113
-0.078552,0.010300,-0.120255,-0.002060,-0.001236
-0.100159,0.029572,-0.254059,0.006271,-0.001053
-0.128815,0.043900,-0.271133,0.002060,-0.004257
-0.260880,0.025269,-0.338654,0.003662,-0.002197
-0.315491,0.007233,-0.288300,-0.002792,0.005997
-0.351242,0.028427,-0.202240,-0.014786,0.008881
-0.329910,0.059875,-0.207184,-0.003159,0.001511
-0.171753,0.071411,-0.349594,-0.004440,-0.002380
-0.004440,0.095535,-0.458084,0.002518,0.007736
0.128174,0.153992,-0.303680,0.013962,0.010391
0.142273,0.181046,0.142502,0.021652,0.004990
0.130737,0.172852,0.245499,0.015976,0.001694
0.046417,0.122910,0.170517,0.011169,-0.003799
-0.150330,0.076538,0.373718,-0.019547,-0.003754
-0.261017,0.070633,0.410477,-0.023392,-0.002106
-0.174774,0.031769,0.251678,-0.012680,0.002014
0.085052,-0.025864,-0.100983,0.006363,0.004486
0.280197,-0.089172,-0.161407,0.004303,0.009109
0.362732,-0.168594,0.082764,0.006683,0.006866
0.395050,-0.194504,0.146347,-0.000275,0.009064
0.327301,-0.239639,0.171341,0.000092,0.006683
0.260742,-0.217987,-0.117783,-0.005814,-0.000366
0.176239,-0.172531,-0.351471,-0.000870,-0.001694
0.103455,-0.113983,-0.331512,0.004715,0.005264
0.063904,-0.067245,-0.163239,0.001373,0.006180
0.038498,-0.064133,0.123779,0.005219,0.003891
-0.065002,-0.086929,0.427368,0.014099,0.005035
-0.103638,-0.112473,0.532150,0.015472,0.006775
-0.162598,-0.136093,0.583328,0.020828,0.007828
-0.207138,-0.086105,0.542679,0.004166,0.007462
-0.173492,-0.011169,0.086975,-0.010620,0.005539
-0.088165,0.086838,-0.445793,0.006363,0.006134
-0.056763,0.148773,-0.467274,0.006180,0.007004
-0.002930,0.127945,-0.488754,0.016708,-0.003662
0.021881,0.081802,-0.149780,0.019821,-0.001602
0.071136,0.029800,-0.188828,0.011307,-0.001923
0.029434,0.023575,-0.282578,0.006546,0.003937
-0.089172,0.099106,-0.022705,0.002747,0.006958
-0.219681,0.161453,0.214233,-0.001602,0.009155
-0.363831,0.163605,0.353439,-0.015106,0.007507
-0.401779,0.149506,0.395782,-0.017624,0.004120
-0.370308,0.108719,0.329361,-0.022224,0.001419
-0.338837,0.032547,0.317184,-0.026825,-0.001602
-0.102539,0.019043,0.320938,-0.007919,-0.002289
0.193680,0.016846,0.132980,0.014282,-0.004074
0.359276,-0.001328,0.183289,0.012589,0.002472
0.362560,-0.074936,0.221466,-0.001740,0.007645
0.365845,-0.146713,0.137329,0.025726,0.009842
0.154907,-0.232956,0.102859,0.028152,0.006683
0.050949,-0.289993,-0.013779,0.018127,0.007416
-0.069672,-0.305603,-0.247650,-0.023666,0.004990
-0.176468,-0.274612,-0.386948,-0.024490,-0.002060
-0.174454,-0.243622,-0.127853,-0.017258,-0.003067
-0.115173,-0.070084,-0.003662,-0.010025,-0.000137
-0.046326,0.096725,-0.213181,0.019180,-0.000458
0.016205,0.235291,-0.552475,0.009750,-0.001740
0.120255,0.286354,-0.571930,-0.009705,-0.003433
0.204895,0.315571,-0.490494,-0.019043,0.000320
0.330688,0.292482,-0.604431,-0.015198,0.006042
0.303635,0.203736,-0.396790,-0.010849,0.009201
0.276581,0.114990,0.236755,0.002975,0.006592
0.130920,-0.041336,0.569916,0.009109,0.003250
0.084961,-0.161316,0.452728,0.003891,-0.003799
0.002335,-0.196243,0.267792,-0.000458,-0.004623
-0.126343,-0.158478,-0.007462,0.010941,-0.004669
-0.122726,-0.094803,-0.007416,0.018448,-0.002930
-0.109634,-0.073151,0.197113,0.019318,-0.000870
-0.196426,-0.079239,0.511597,0.019775,0.007736
-0.352844,-0.121399,0.640686,0.025635,0.008881
-0.338562,-0.158249,0.504913,0.022293,0.008743
-0.240051,-0.167038,0.118286,0.008972,0.003891
-0.123962,-0.114075,-0.209244,-0.000870,0.001328
-0.079102,-0.054428,-0.372299,-0.011856,-0.000549
-0.084137,0.024994,-0.220963,-0.023163,0.002792
-0.087250,0.081253,-0.196930,-0.028976,0.002884
-0.037354,0.122818,-0.398712,-0.024948,-0.001144
0.046738,0.163055,-0.235016,-0.008743,0.001694
0.242065,0.209473,-0.038727,-0.006912,0.008789
0.403015,0.223709,-0.021927,0.011719,0.008331
0.390198,0.221191,-0.148178,0.009109,0.007965
0.329636,0.206314,-0.155640,0.001419,0.009109
0.288574,0.158524,-0.177155,-0.002380,0.008011
0.149506,0.092422,0.073608,-0.000320,0.007919
-0.032776,-0.019043,0.241425,0.007370,0.008926
-0.165070,-0.115402,0.192398,0.005310,0.006821
-0.277222,-0.147354,-0.053284,0.006409,0.004166
-0.358154,-0.109726,-0.177109,0.004257,0.004807
-0.406700,-0.042206,-0.131378,-0.000275,0.005035
-0.434406,0.009064,0.183472,0.007874,0.001740
-0.426973,0.047058,0.484177,0.013596,0.000320
-0.315019,0.035385,0.434647,0.007919,-0.000137
-0.203064,-0.002335,0.282806,-0.008926,0.001785
0.115356,-0.021881,-0.158295,-0.005127,-0.001465
0.396606,-0.033691,-0.469116,0.007965,0.001236
0.580536,-0.049347,-0.458176,-0.003159,-0.003342
0.624344,-0.063400,-0.150696,0.005173,-0.003662
0.520912,-0.065140,0.264908,0.002701,-0.004623
0.360317,-0.094254,0.468109,0.001785,-0.003387
0.199722,-0.104416,0.618164,-0.004395,-0.003296
-0.001556,-0.090500,0.508736,-0.002838,-0.002106
-0.196014,-0.056259,0.399307,-0.006134,-0.004669
-0.346756,-0.026367,-0.360809,-0.002335,0.005859
-0.399513,-0.002472,-0.650505,0.011993,0.010208
-0.361347,0.019363,-0.527103,0.010757,0.006592
-0.323181,0.021606,-0.403702,0.012589,0.007782
-0.168091,-0.018539,-0.099335,0.014145,0.009064
-0.087570,-0.040283,-0.157196,0.000229,0.007370
-0.065826,-0.023117,-0.132751,-0.006638,0.002884
-0.131973,0.040237,0.093018,-0.016159,-0.001602
-0.117050,0.127075,0.389648,-0.015015,0.004211
0.038910,0.167130,0.397614,-0.022614,0.005997
0.266693,0.124512,0.048569,-0.029480,-0.002151
0.372437,0.041565,-0.258087,-0.018631,0.002380
0.307938,-0.022202,-0.386490,-0.003708,-0.002197
0.193726,-0.035385,-0.210983,0.016068,-0.000778
0.090179,-0.022568,-0.161728,0.020004,0.001877
-0.056763,0.027100,0.106567,0.021584,0.000320
-0.086563,0.023209,0.338745,0.023163,0.001785
-0.057770,-0.056534,0.559296,0.016754,-0.001740
-0.006042,-0.092422,0.528397,0.004532,-0.003799
0.047058,-0.110275,0.245361,0.000320,-0.004257
0.073563,-0.084366,0.034195,0.002060,-0.002197
0.073746,-0.089951,0.128220,-0.003479,0.005081
-0.009888,-0.080154,0.316406,-0.003708,0.008011
-0.148865,-0.042801,0.373489,0.005951,0.005859
-0.341080,0.000000,0.273697,0.005585,-0.003021
-0.442589,0.020233,0.044312,-0.000137,-0.001236
-0.405041,0.033600,-0.187775,0.004623,-0.000275
-0.367493,0.012314,-0.456757,0.007187,-0.000778
-0.109818,-0.065186,-0.625031,0.017441,-0.001694
0.258133,-0.132706,-0.766800,-0.006912,-0.001053
0.462593,-0.112198,-0.788269,-0.004852,0.003204
0.486271,-0.060654,-0.597565,-0.007553,-0.004395
0.378496,-0.022385,-0.406860,0.008652,0.000000
0.270721,-0.009979,0.052597,0.005585,-0.001099
0.028793,-0.009659,0.455841,0.004715,0.005859
-0.105011,0.006775,0.670898,-0.003845,0.010620
-0.225311,0.026550,0.790787,-0.013596,0.004349
-0.266144,0.041245,0.668266,-0.014236,0.005905
-0.177979,0.071503,0.545746,-0.013229,0.002289
0.008423,0.083221,0.142227,-0.017166,-0.002197
0.173767,0.059738,-0.038956,-0.011353,-0.002930
0.284317,0.053558,-0.180496,-0.012085,-0.001831
0.246735,0.077179,-0.590286,-0.000549,-0.002106
0.073059,0.109497,-0.487656,0.007233,-0.002335
-0.158661,0.125702,-0.385025,-0.008514,0.003433
-0.361221,0.140945,-0.152939,0.007919,0.001099
-0.340805,0.119751,-0.330002,0.007187,0.001007
-0.320389,0.065918,-0.217438,0.012451,-0.002747
-0.083862,-0.012589,0.226227,0.009567,-0.001968
0.166992,-0.097961,0.354172,0.010300,0.000732
0.314301,-0.138977,0.026093,0.008698,0.007324
0.381775,-0.149277,-0.105972,0.004166,0.008057
0.399582,-0.133255,0.125748,0.003662,0.010025
0.344627,-0.104965,0.286331,0.011124,0.007095
0.289673,-0.084366,0.246048,-0.007645,0.001053
0.098923,-0.046783,0.243896,0.004807,0.000961
-0.078918,-0.006958,0.227509,0.012543,0.007965
-0.278275,0.035522,0.221512,-0.009018,0.006134
-0.395279,0.080566,0.191757,-0.014328,0.005814
-0.442223,0.107300,-0.005585,-0.011810,-0.000275
-0.442898,0.085281,-0.115402,-0.006317,-0.001556
-0.430670,0.039093,-0.095993,-0.000641,0.007965
-0.408099,0.007233,0.096359,0.008560,0.009064
-0.385529,-0.000137,0.081390,0.009842,0.008835
-0.207184,-0.010986,0.103271,0.003433,0.005310
0.158615,0.002060,0.376694,0.000092,0.003754
0.352341,-0.008240,0.024216,-0.008286,0.003525
0.421532,-0.010300,-0.384201,-0.000732,0.005173
0.378674,0.021194,-0.539383,-0.006775,0.008057
0.335815,0.026688,-0.593857,-0.005035,0.008652
0.155136,0.014557,-0.648331,0.010025,0.004440
0.095947,0.000320,-0.418625,0.000229,0.009888
0.047195,0.009430,-0.024902,-0.007004,-0.003937
-0.137329,0.031448,0.261841,-0.013916,0.000320
-0.330505,0.060196,0.339981,-0.015198,0.004349
-0.366348,0.069168,0.206863,-0.004257,0.008102
-0.402191,0.033051,0.238358,-0.000458,-0.003708
-0.260559,-0.039001,0.487930,0.001007,-0.001190
0.070404,-0.066833,0.795547,-0.002563,0.007507
0.278091,-0.057953,0.863319,-0.008469,0.000092
0.349251,-0.062119,0.650951,-0.001144,0.001144
0.326260,-0.094482,0.438583,0.005081,0.007050
0.303268,-0.074478,-0.067520,0.015381,-0.003845
0.073975,-0.041931,-0.734322,0.007690,0.007874
-0.143234,-0.016846,-0.758228,0.004578,0.002060
-0.204895,0.020233,-0.503740,0.016113,0.002701
-0.161865,0.044540,-0.249252,0.010391,0.008011
-0.120987,-0.000549,-0.451126,0.003845,-0.003708
-0.067108,-0.080887,-0.584152,-0.010437,0.007233
0.010117,-0.165939,-0.332840,-0.001190,0.000092
0.061752,-0.227646,0.139206,-0.000687,0.003525
0.178436,-0.209930,0.410019,0.016251,0.008743
0.225861,-0.154953,0.446274,0.023758,-0.001007
0.244766,-0.072922,0.111649,0.018585,-0.000275
0.155914,0.000137,-0.119843,0.001968,0.005310
-0.020462,0.043533,0.077225,0.002426,0.005676
-0.148590,0.084503,0.220459,0.004990,-0.003891
-0.205078,0.127075,0.439545,-0.003296,-0.002609
-0.210938,0.175598,0.587242,-0.016617,0.006500
-0.167816,0.209244,0.549534,-0.017487,0.006180
-0.181366,0.223343,0.511826,-0.019913,-0.001282
-0.250717,0.167587,0.316681,-0.021011,-0.002609
-0.247925,0.101807,-0.358704,-0.019226,0.008606
-0.172852,0.059509,-0.858833,-0.004623,0.008926
-0.085968,0.025177,-0.906132,0.003983,0.002975
-0.037949,0.003067,-0.562838,0.018219,-0.002106
0.007874,-0.036118,-0.219543,0.022293,0.004578
0.189423,-0.031219,0.141861,0.026367,0.007965
0.381592,-0.037216,0.288895,0.013596,0.008286
0.387451,-0.046005,0.291458,0.006592,-0.002609
0.393311,-0.071091,0.297867,0.006912,0.003433
0.214233,-0.108856,0.390610,0.011124,0.010574
0.041245,-0.155869,0.410431,0.003433,0.000046
-0.087158,-0.212997,0.403976,-0.001648,0.004623
-0.153809,-0.244308,0.464722,-0.006958,0.011307
-0.164337,-0.223206,0.502396,-0.013046,0.004623
-0.153122,-0.202103,0.342316,-0.008743,-0.001236
-0.145660,-0.126205,0.150558,-0.000778,-0.000595
-0.112061,-0.035843,0.116226,-0.003159,-0.003479
-0.147903,0.030167,0.156006,-0.019089,0.007736
-0.217712,0.131195,0.050858,-0.017670,0.000275
-0.288574,0.237488,-0.235107,0.009201,0.004211
-0.170288,0.261269,-0.578110,-0.009155,0.008789
0.052734,0.229511,-0.443321,-0.003021,0.005493
0.299561,0.197754,-0.308533,-0.007874,0.002060
0.382690,0.116455,0.283539,0.005493,0.005219
0.402008,0.038910,0.272186,0.020920,0.008560
0.341789,-0.035934,-0.170151,0.027374,0.000046
0.281570,-0.091965,-0.199493,0.018791,0.000320
0.131058,-0.126297,0.045639,0.010208,0.003021
-0.035477,-0.131836,0.120987,-0.011833,-0.002197
-0.281891,-0.086609,-0.155914,-0.013058,-0.000229
-0.468521,-0.006958,-0.510544,-0.014282,0.003662
-0.570808,0.006500,-0.386627,-0.007965,0.007599
-0.552715,-0.009521,0.266235,-0.017212,0.004349
-0.471548,-0.011765,0.610977,-0.004715,0.003616
-0.390381,-0.011902,0.460693,0.013596,0.005539
-0.137604,0.017624,0.011444,0.007050,-0.001007
0.150833,0.071960,-0.270264,-0.001144,0.011765
0.358749,0.079193,-0.279099,-0.002747,-0.002197
0.404137,0.069901,-0.279373,-0.004532,0.003708
0.348026,0.022110,-0.161636,-0.005722,0.007919
0.291916,-0.040329,-0.134811,0.008102,0.000092
0.166580,-0.115448,0.085236,0.023758,0.009384
0.061157,-0.185989,0.167313,0.026688,-0.003571
0.001648,-0.201141,0.161453,0.019318,0.005081
0.050262,-0.128036,-0.056122,0.006638,0.003662
0.042984,-0.049164,-0.064774,-0.004852,-0.000137
0.011536,0.052368,0.262939,-0.013687,0.010437
0.048981,0.153763,0.593445,-0.021057,-0.002335
0.059418,0.231079,0.657051,-0.026047,0.007416
-0.066742,0.224716,0.600277,-0.027786,0.002975
-0.211533,0.218353,0.543503,-0.015747,-0.000320
-0.273697,0.166992,0.028198,-0.004578,0.010254
-0.160400,0.098511,-0.709099,-0.018951,-0.001282
0.013733,0.027878,-0.999378,-0.012405,0.007141
0.146118,-0.064407,-0.672129,-0.005859,0.011353
0.190063,-0.131287,-0.344879,0.022339,-0.002518
0.170334,-0.152023,0.272736,0.024536,0.009521
0.072144,-0.136688,0.214737,0.018814,-0.002609
0.031219,-0.109268,0.278641,0.005219,0.002060
0.036255,-0.072922,0.545837,0.000732,0.001648
0.057724,-0.032822,0.483215,0.010757,0.005585
0.032593,-0.016113,0.420593,0.019547,0.008377
-0.013916,-0.049713,-0.023209,0.021606,-0.000870
-0.142914,-0.117691,-0.465271,0.021332,0.008148
-0.194595,-0.164246,-0.478821,0.024490,-0.002884
-0.183609,-0.175690,-0.277588,0.014374,0.006683
-0.172668,-0.160400,0.039734,-0.006317,0.004623
-0.130005,-0.101303,0.446548,-0.012177,-0.001877
-0.048157,-0.039551,0.288620,-0.008469,0.008881
-0.003159,-0.004578,-0.195465,-0.013184,-0.000137
0.056763,0.039780,-0.633179,-0.014557,0.003204
0.074066,0.051910,-0.418488,-0.018265,0.007553
0.062027,0.054153,-0.031357,-0.006317,-0.004669
0.122223,0.068527,0.248520,-0.001328,0.006317
0.190430,0.098923,0.298462,-0.001556,-0.000870
0.213821,0.129776,0.308624,-0.008011,0.004166
0.213181,0.169830,0.336456,-0.007095,0.007553
0.221054,0.171432,0.427780,-0.004303,0.000320
0.118698,0.159943,0.215103,-0.007370,0.004028
-0.064270,0.110275,-0.137054,-0.004761,0.003754
-0.287659,0.020004,-0.270401,0.009384,0.003250
-0.394180,-0.071136,-0.046555,0.010803,0.006363
-0.402649,-0.113388,0.224304,-0.005539,0.007324
-0.322128,-0.115311,0.060928,0.006180,0.008011
-0.180038,-0.065506,-0.300659,0.006271,0.010895
-0.015060,0.046509,-0.485046,-0.005264,0.007187
0.171844,0.180817,-0.416611,-0.005219,0.004715
0.231949,0.223869,-0.360992,-0.008469,-0.000229
0.215515,0.183369,-0.121262,0.013596,-0.004166
0.191986,0.142868,0.093475,0.033096,-0.000824
0.153625,-0.107071,0.459595,0.028793,-0.004761
0.159897,-0.257904,0.549660,0.024490,0.001465
0.091415,-0.322060,0.639725,0.008057,0.001373
0.034058,-0.303440,0.265915,-0.003296,-0.000366
-0.020187,-0.243708,-0.278000,0.000320,0.004166
-0.041794,-0.183975,-0.614731,0.012589,-0.003525
-0.037903,-0.087936,-0.567810,0.007416,0.007095
0.028702,0.007187,-0.181412,0.001648,-0.002975
0.051865,0.082169,0.147491,0.005081,0.011032
0.063171,0.092651,-0.128632,-0.001007,0.001694
0.067200,0.110275,-0.525787,-0.017029,0.002792
0.129776,0.092789,-0.465317,-0.014374,0.009659
0.081711,0.046967,-0.301483,-0.005539,-0.000595
-0.000549,0.030762,-0.111328,0.015564,0.005173
-0.111694,0.045364,0.229568,0.012589,0.003067
-0.199310,0.041107,0.566986,0.014923,-0.001144
-0.200821,0.033463,0.545860,-0.005539,0.008011
-0.115311,0.032364,0.524734,-0.018356,0.008926
-0.044083,0.030624,0.252274,-0.020004,-0.001465
-0.062256,0.011993,0.236298,-0.008286,0.008011
-0.071686,0.009979,0.344284,0.005585,0.003662
-0.059647,-0.048935,0.193680,0.007462,0.005219
-0.068481,-0.074387,0.057220,0.010666,0.007462
-0.150055,-0.099655,0.043716,0.004852,0.006592
-0.233780,-0.096954,-0.094025,-0.005310,0.007645
-0.259872,-0.041840,-0.320801,-0.030121,0.004623
-0.141357,0.015198,-0.583878,-0.029091,-0.003204
0.033691,0.080200,-0.588387,-0.028061,-0.002014
0.279968,0.112701,-0.592896,-0.009521,0.004578
0.429199,0.147812,-0.169098,0.023415,0.008148
0.437805,0.148041,0.142090,0.023586,0.007553
0.335632,0.142685,0.271591,0.023758,0.008057
0.233459,0.134308,0.238495,-0.025635,0.004715
0.107437,0.079422,0.147903,-0.018196,0.000320
0.037628,0.010437,0.266190,-0.010757,-0.001968
-0.096634,-0.067017,0.049576,-0.000229,0.000092
-0.214783,-0.139160,0.165573,-0.002380,0.010666
-0.357147,-0.154083,0.176285,-0.002380,-0.001373
-0.469460,-0.132202,-0.035522,0.022522,0.006821
-0.471760,-0.068161,-0.419403,0.018013,0.004257
-0.412531,-0.011948,-0.585800,0.013504,-0.004074
-0.353302,0.023483,-0.305740,0.014603,0.006866
-0.196930,0.000320,0.174179,0.007324,-0.001648
0.033875,-0.113205,0.332291,0.003433,0.012405
0.309723,-0.183472,0.336319,0.001007,-0.004395
0.467880,-0.177612,0.461517,-0.009384,0.007324
0.518005,-0.117966,0.596786,0.003891,-0.005539
0.440323,-0.032135,0.644485,0.011856,0.006638
0.362640,0.028610,0.449890,0.010483,-0.001968
0.136230,0.044678,-0.043945,0.000961,0.004898
-0.117142,0.056030,-0.481659,-0.003479,0.008835
-0.288483,0.070312,-0.590469,-0.012955,-0.005768
-0.349869,0.067703,-0.463898,-0.025772,0.006546
-0.378204,0.070587,-0.369370,-0.027397,-0.001694
-0.286514,0.088943,-0.424118,-0.029022,0.003250
-0.100433,0.115906,0.045044,-0.019180,0.008057
-0.019135,0.140945,0.313660,-0.012360,-0.004440
-0.072693,0.131424,0.013321,-0.005630,0.006683
-0.093933,0.090408,-0.329041,0.007233,0.000824
-0.095947,0.033096,-0.255844,0.012589,0.000320
-0.102539,-0.032272,-0.337967,0.005264,0.010071
-0.014786,-0.033417,-0.389557,-0.003891,0.001877
0.166077,0.014740,-0.009842,-0.000504,0.002014
0.392029,0.032776,0.539246,0.016159,0.006592
0.403473,0.007233,0.405579,0.010574,-0.005859
0.328812,-0.060150,0.271912,-0.002335,0.003159
0.254150,-0.121582,-0.014557,-0.007553,0.007919
0.066879,-0.131653,0.029251,-0.006958,-0.001190
-0.092285,-0.126938,-0.113663,-0.011856,0.007782
-0.078278,-0.112656,-0.541534,-0.016296,0.000320
-0.006409,-0.059967,-0.621094,-0.008469,-0.004761
0.129913,0.017624,-0.305466,0.005219,0.008652
0.129639,0.103317,0.004486,0.004990,-0.002518
0.040421,0.188324,0.272141,0.002060,0.004669
-0.039139,0.231560,0.411713,0.003113,0.002975
-0.118103,0.231846,0.489807,0.001785,-0.003525
-0.179718,0.232132,0.639999,0.001465,0.002701
-0.277771,0.110870,0.667007,0.009384,-0.002289
-0.380035,-0.039551,0.552109,0.022659,0.004532
-0.406265,-0.164612,0.437210,0.028473,0.000320
-0.335701,-0.228333,0.054749,0.017212,0.006592
-0.265137,-0.244286,-0.424622,0.006729,0.002975
0.018906,-0.224339,-0.510109,-0.003845,0.000320
0.249985,-0.204391,-0.595596,0.018173,0.008560
0.376694,-0.218674,-0.590378,0.019958,-0.004990
0.381180,-0.203476,-0.513062,0.021744,0.006363
0.314117,-0.100708,-0.207825,0.009109,0.002975
0.207550,-0.049484,0.179443,-0.005722,0.002701
0.052551,-0.070496,0.338699,-0.017715,0.009430
-0.043579,-0.096359,0.398712,-0.024673,0.001785
-0.126801,-0.112839,0.629608,-0.024902,0.008148
-0.219727,-0.080063,0.551788,-0.019775,-0.002930
-0.261978,-0.003525,-0.159164,-0.015930,0.008514
-0.160034,0.111328,-0.507683,-0.007324,-0.001465
0.035522,0.206177,-0.378902,-0.003250,0.013092
0.204346,0.287819,-0.250122,0.009613,-0.000870
0.298874,0.279041,-0.025131,-0.013458,0.011581
0.326889,0.182138,-0.278183,-0.001053,-0.002197
0.218994,0.085236,-0.235519,0.011719,0.009476
0.047607,-0.140305,0.031494,0.015198,0.001465
-0.124557,-0.175529,0.304871,0.008377,0.004486
-0.186676,-0.210754,0.427826,-0.003433,0.005539
-0.212585,-0.100983,0.445450,-0.022293,-0.006409
-0.191895,0.030899,0.560532,-0.021423,0.000275
-0.100571,0.093887,0.492508,-0.020554,0.005402
-0.063858,0.073334,0.134857,0.018837,0.011124
-0.036942,0.040741,0.001694,0.028004,0.003250
-0.024536,0.006683,-0.130417,0.022608,0.006180
0.036255,0.024353,-0.475983,0.017212,0.010437
0.108170,0.038406,-0.729263,-0.012451,-0.002838
0.152573,0.038406,-0.570808,-0.029892,0.000320
0.180817,-0.006409,-0.412354,-0.018723,0.011215
0.135132,-0.071640,0.289307,-0.006592,0.001511
0.066055,-0.135086,0.605988,-0.019135,-0.002609
-0.012268,-0.185577,0.649612,-0.006088,-0.001099
-0.082031,-0.174683,0.661697,-0.000320,-0.001236
-0.206177,-0.111008,0.523911,-0.002884,-0.000412
-0.256256,0.001877,0.386124,-0.010254,0.003525
-0.323730,0.108261,-0.295898,-0.000916,0.005127
-0.385574,0.162827,-0.522011,-0.008469,0.007507
-0.343803,0.169464,-0.603550,-0.006088,0.007507
-0.302032,0.161591,-0.520815,-0.021149,0.006821
-0.014511,0.132568,-0.438080,-0.024353,0.007553
0.276489,0.087616,0.132431,-0.007919,0.005310
0.428238,0.079834,0.626587,-0.004028,0.004395
0.478615,0.067657,0.845467,-0.024902,0.000183
0.432049,0.017853,0.983585,-0.003983,-0.004578
0.385483,-0.030441,0.899431,0.027832,-0.002335
0.119751,-0.086746,0.264550,0.023071,0.004257
-0.135956,-0.136230,-0.370331,0.027557,0.009338
-0.263855,-0.161407,-0.838440,0.006088,-0.001190
-0.313156,-0.135544,-0.980576,0.005127,0.000046
-0.269394,-0.090775,-0.822990,0.000320,-0.003204
-0.143188,-0.069992,-0.620510,0.005859,0.004211
0.018448,-0.029572,-0.418030,0.019958,0.008102
0.095764,0.014694,-0.261887,0.014969,0.008514
-0.001099,0.055481,0.029755,-0.001282,0.005402
-0.150513,0.084229,0.373169,-0.025543,0.002014
-0.268341,0.102585,0.663940,-0.023438,-0.006409
-0.318054,0.113480,0.904724,-0.005264,0.000778
-0.204025,0.127258,1.000946,0.002197,0.006134
0.016937,0.088715,0.742676,0.010162,-0.000549
0.274384,0.026138,0.484406,-0.002838,-0.004623
0.362228,-0.015335,-0.285049,-0.007599,-0.001282
0.367538,0.010986,-0.507477,-0.001419,-0.001877
0.319931,0.072281,-0.666298,0.003159,-0.001923
0.258133,0.103958,-0.726368,0.025131,0.007599
0.198807,0.058456,-0.550684,0.027237,0.009293
0.158936,-0.061661,-0.375000,0.032227,-0.003067
0.135315,-0.155365,-0.021240,0.013824,0.005219
0.033691,-0.190567,0.134171,0.001144,0.009109
-0.055298,-0.168137,0.224625,-0.008240,0.005630
-0.173080,-0.105789,0.299881,-0.003525,0.006592
-0.230896,-0.028748,0.248383,0.002060,-0.001282
-0.245132,-0.032913,0.099792,0.011993,-0.004349
-0.250854,-0.066101,-0.070358,0.015381,0.007141
-0.158340,-0.108490,0.140579,0.020599,0.005127
-0.051086,-0.078873,0.127625,0.003983,0.008240
0.000000,0.019135,-0.334305,-0.006500,0.007370
0.047607,0.063995,-0.400589,-0.009705,0.000320
0.103088,0.044037,-0.466873,-0.020187,-0.002060
0.136780,0.009109,-0.027100,-0.018127,-0.002518
0.179993,-0.013184,0.404617,-0.029846,0.004211
0.143051,-0.068710,0.496628,-0.019547,0.006683
-0.054337,-0.164612,0.557465,-0.005219,0.004715
-0.139481,-0.184250,0.503128,0.018173,0.007553
-0.133667,-0.123596,0.436432,0.018265,0.008743
-0.077591,-0.024490,0.241470,0.001877,0.009659
-0.030029,0.042297,-0.044540,-0.002335,0.006180
0.027740,0.102859,0.016663,-0.000275,-0.000275
0.049484,0.096680,0.223618,0.015244,0.000320
0.062988,0.097000,0.157425,0.013458,0.002243
0.051453,0.150650,-0.103729,-0.004211,-0.003433
0.034424,0.193817,-0.339340,-0.008698,0.000320
-0.025452,0.210068,-0.515808,-0.008469,0.009888
-0.130005,0.189468,-0.469574,-0.005722,0.007919
-0.227737,0.126297,-0.313431,-0.008789,0.007736
-0.239273,0.047195,0.202148,-0.008743,0.003571
-0.134674,-0.024902,0.460236,-0.006638,0.004257
0.029160,-0.101669,0.294617,0.003525,0.007965
0.240967,-0.151245,-0.082809,0.016296,0.008331
0.327667,-0.162140,-0.236298,0.016846,0.005539
0.314758,-0.099289,-0.331512,-0.002289,0.005951
0.180450,-0.095947,-0.594086,-0.027420,0.001877
-0.016434,-0.087433,-0.425262,-0.012314,0.001007
-0.152939,-0.038681,-0.182373,0.006683,0.005127
-0.244949,0.015839,0.062714,0.000229,-0.007828
-0.266739,0.058090,0.088623,0.014786,-0.000275
-0.277222,0.095718,-0.047195,0.018814,0.003250
-0.242340,0.085144,-0.030075,0.006729,0.007278
-0.151657,0.053421,0.211258,-0.002930,0.005585
-0.029663,-0.022568,0.471405,-0.006226,0.004166
0.116135,-0.054428,0.531441,-0.002701,-0.001556
0.110001,-0.062668,0.591476,0.007416,-0.003525
0.027466,-0.066055,0.291687,0.010666,-0.003799
0.057129,-0.090363,0.001694,0.003525,-0.004166
0.092377,-0.056122,-0.035294,0.013779,0.000320
0.048340,-0.037903,0.343643,0.005127,0.002014
-0.022110,0.002884,0.382233,-0.015747,-0.000778
-0.014511,0.026230,0.200821,-0.027031,0.000870
0.070496,0.041565,-0.243347,-0.038097,0.004486
0.095215,0.025635,-0.794815,-0.018202,0.008789
0.101807,0.040466,-0.856842,0.001694,0.006775
0.136963,0.002060,-0.650528,0.032272,0.005219
0.126434,-0.061203,-0.444214,0.043579,0.002426
0.154083,-0.099747,-0.164749,0.034447,0.000732
0.161270,-0.132797,0.037628,0.025314,-0.001282
0.065826,-0.141495,0.193909,0.015656,0.001099
-0.078369,-0.101028,0.271271,0.000961,0.006912
-0.163422,-0.025360,0.177246,-0.005264,0.009659
-0.274567,0.079926,0.102493,-0.002243,0.009064
-0.402008,0.154816,0.303772,-0.005951,-0.002701
-0.402054,0.194824,0.602669,-0.006180,-0.002380
-0.402100,0.164383,0.599979,-0.025131,-0.002884
-0.262527,0.117508,0.597290,-0.022202,0.001099
-0.030396,0.085281,0.403061,-0.012634,0.002243
0.171204,0.046234,0.024902,-0.019684,0.005127
0.375137,0.021423,-0.484314,-0.018562,0.007416
0.442085,0.033051,-0.576874,-0.017441,0.010208
0.438618,0.022980,-0.474655,-0.005539,0.008102
0.360003,-0.007141,-0.229568,0.019913,0.007553
0.281387,-0.034149,0.066833,0.026688,0.003067
0.078964,-0.092651,-0.038086,0.007919,-0.001877
-0.077637,-0.161453,-0.175461,0.003845,-0.001419
-0.108307,-0.172531,-0.149918,0.002335,-0.000320
-0.036621,-0.170975,0.060059,0.004761,0.006821
0.014374,-0.084641,0.172943,0.005951,0.007278
0.045181,0.038406,0.135452,-0.006729,0.010574
0.068527,0.140259,-0.004028,-0.000732,0.007736
0.021423,0.143692,-0.167267,-0.001648,0.003754
-0.105927,0.174179,-0.279144,0.010117,0.006775
-0.271408,0.133484,-0.331696,0.023758,0.008743
-0.328789,0.061569,-0.251633,0.004990,0.006729
-0.386169,-0.032593,0.090088,0.006271,0.003479
-0.181229,-0.138474,0.371704,0.005081,0.002563
0.007233,-0.234100,0.319473,-0.001831,-0.001968
0.121124,-0.211098,0.135590,-0.004486,0.008926
0.195007,-0.188095,0.128128,-0.000275,0.011673
0.203934,-0.111740,0.193497,-0.009750,0.007599
0.128174,-0.029526,0.139984,-0.010895,0.003799
0.002792,0.012314,0.047150,-0.023529,-0.003708
-0.005905,0.059555,-0.149368,-0.024765,0.005127
-0.017303,0.102036,-0.169693,-0.009888,0.009064
-0.054703,0.093613,-0.055344,-0.006958,-0.004440
-0.057770,0.053787,0.136688,-0.001785,0.003616
-0.052734,0.054520,0.443207,0.013046,-0.000732
-0.068848,0.079010,0.643639,-0.008469,0.007416
-0.052002,0.121719,0.503712,-0.013779,0.005402
-0.110550,0.132751,0.363785,-0.010483,-0.002197
-0.087433,0.107758,-0.577286,0.000320,0.006958
-0.074295,0.029755,-0.728943,0.023712,0.005997
0.008011,-0.044540,-0.618347,0.024948,-0.001877
0.143921,-0.100342,-0.507751,0.023071,0.003754
0.193634,-0.132706,-0.222610,0.021194,0.010391
0.218536,-0.118515,-0.084137,0.003250,0.002289
0.241470,-0.085144,-0.105103,-0.008514,0.001877
0.170700,-0.039322,-0.050491,-0.011719,0.007782
0.060791,0.017899,0.291779,-0.015793,-0.001831
-0.060699,0.079926,0.315170,-0.013824,0.009064
-0.172806,0.090408,0.095169,0.006271,0.003021
-0.163147,0.046280,-0.195648,0.019043,-0.003708
-0.064407,-0.037766,-0.241104,0.019913,0.002792
-0.049942,-0.113525,-0.198898,0.030899,0.008331
-0.035980,-0.193451,-0.228195,0.023529,0.009750
-0.055664,-0.215446,-0.149185,0.006958,0.002472
-0.068848,-0.237442,0.201096,-0.011032,-0.000092
-0.069992,-0.178986,0.371567,-0.023117,0.007507
-0.023117,-0.036575,0.375320,-0.022293,-0.003525
0.096176,0.087387,0.266144,-0.019180,0.008286
0.224396,0.151337,0.320663,-0.004303,-0.000458
0.273605,0.200043,0.408920,0.019547,0.008331
0.209152,0.210251,0.531097,0.030167,-0.003159
-0.019730,0.193359,0.575111,0.015060,0.006866
-0.277222,0.125839,0.619125,-0.006088,0.002151
-0.389465,0.018402,0.013367,-0.016296,-0.001190
-0.346527,-0.041107,-0.638260,-0.002930,0.006638
-0.162460,-0.066925,-0.466599,0.014145,0.006134
0.128769,-0.053604,-0.294937,0.015518,-0.001602
0.273651,-0.039230,-0.365204,0.006866,0.000732
0.295898,-0.036850,-0.369141,-0.006271,0.010803
0.240509,-0.089493,-0.123505,-0.013412,0.001602
0.137604,-0.098282,-0.098007,-0.027832,0.003021
0.142319,-0.107712,-0.460510,-0.010712,0.009888
0.112061,-0.065506,-0.492325,0.001877,0.003250
0.058914,-0.035202,-0.524139,0.002060,-0.001465
0.065552,0.010483,-0.218903,-0.010529,0.008698
0.029846,0.036530,0.113708,-0.005859,0.007370
-0.081528,0.029984,0.326797,0.001236,0.007828
-0.245544,-0.021744,0.270081,-0.008469,0.003708
-0.369049,-0.040329,0.237808,-0.004578,-0.002884
-0.363510,-0.036758,0.224808,-0.006500,-0.000275
-0.357971,0.000320,0.188553,-0.002426,0.001785
-0.194824,0.052597,0.285507,0.002151,0.004166
-0.009521,0.080246,0.328445,0.007416,0.005219
0.119888,0.057037,0.361816,-0.001556,0.011124
0.198669,0.027603,0.361038,-0.009430,0.010483
0.212494,0.025406,0.429474,-0.016022,0.007553
0.165161,0.068390,0.510590,-0.018311,-0.001236
0.112061,0.106201,0.336227,-0.016113,0.002975
0.023758,0.117508,-0.177704,0.005585,0.005722
-0.090088,0.095215,-0.602509,0.007828,0.008148
-0.215286,0.067154,-0.437851,0.010803,-0.002243
-0.240784,0.066376,-0.201050,0.004578,0.003525
-0.176926,0.063492,0.078140,0.012909,0.001831
-0.078552,0.034195,0.259506,0.012955,-0.002426
0.023758,-0.007187,-0.076401,0.013367,0.002151
0.137787,-0.075165,-0.227966,0.011856,-0.000778
0.258041,-0.144745,-0.340256,0.006866,0.000870
0.213684,-0.156052,-0.467880,0.013687,0.004990
0.215012,-0.163147,-0.610657,0.013046,-0.003067
0.226410,-0.193176,-0.526840,0.004715,-0.002701
0.238632,-0.185806,-0.443024,-0.007141,-0.002335
0.180679,-0.125931,-0.054016,-0.016983,0.007599
0.076904,-0.076950,0.292236,-0.026276,0.006363
-0.007278,-0.053146,0.457626,-0.030945,0.004807
-0.074112,-0.051498,0.523270,-0.019203,0.006866
-0.171204,-0.018402,0.554810,-0.007462,0.007690
-0.239227,0.033142,0.593124,0.000092,0.002518
-0.244720,0.132156,0.692711,0.030441,0.002975
-0.182327,0.196152,0.786633,0.031677,-0.003204
-0.119797,0.194366,0.830618,0.030304,-0.001282
-0.153534,0.192581,0.574244,0.025040,0.001785
-0.204666,0.086197,0.317871,0.019775,0.006958
-0.203979,-0.022293,-0.590515,0.013916,0.008606
-0.174957,-0.055069,-1.043381,0.003799,0.006500
-0.019592,-0.067703,-1.160637,-0.014877,-0.003387
0.150879,-0.082901,-0.759991,-0.020508,0.005859
0.306564,-0.095581,-0.359344,-0.019958,0.009201
0.340210,-0.106339,0.063629,-0.019363,0.009109
0.384109,-0.080017,0.114578,-0.003296,0.005493
0.398438,-0.066147,0.315353,0.005035,0.003754
0.301117,-0.049896,0.615143,-0.005127,0.003845
0.212448,-0.009476,0.647575,0.012726,0.000183
0.181091,0.041336,0.434383,0.009109,-0.002975
0.153488,0.052094,0.221191,-0.004211,-0.003296
0.100525,0.037170,-0.327805,0.008423,0.001785
-0.047791,0.024261,-0.630295,-0.004166,0.006134
-0.168823,0.018768,-0.411301,-0.005951,0.002609
-0.284821,-0.023392,-0.084641,-0.002838,0.006180
-0.400406,-0.051819,0.159988,-0.006409,0.008148
-0.446915,-0.085831,0.183334,-0.001144,0.009064
-0.444603,-0.032639,0.075394,-0.010391,0.009018
-0.383549,0.060654,0.083267,-0.015930,0.006134
-0.322495,0.129044,-0.093109,-0.019638,0.000320
-0.048340,0.146072,-0.151749,-0.030167,-0.003387
0.176285,0.121948,0.154083,-0.012039,-0.001328
0.326660,0.058456,0.506378,0.001694,-0.001373
0.355316,-0.017258,0.574242,0.018723,0.006912
0.295898,-0.042160,0.642105,0.024513,0.005630
0.187500,-0.026230,0.232132,0.030304,0.003296
0.072006,0.019043,-0.339249,0.023392,0.004944
-0.016479,0.034515,-0.472389,0.011169,0.002609
-0.024078,0.026505,-0.605530,0.015244,-0.000137
0.035065,-0.002426,-0.133209,0.018768,0.002563
0.036392,-0.056717,-0.014923,0.000320,-0.000549
0.077271,-0.060928,-0.196655,-0.011032,0.004303
0.123596,-0.070450,-0.302719,-0.014603,0.005951
0.088486,-0.092926,-0.299973,-0.009842,0.005951
0.012817,-0.103180,-0.197433,0.000778,0.008331
-0.148453,-0.118423,-0.098969,-0.009933,0.008743
-0.280930,-0.084457,0.139160,-0.009247,0.006683
-0.303131,-0.055801,0.423523,0.008789,0.010254
-0.278824,-0.014374,0.484222,0.000183,0.005356
-0.240280,-0.013824,0.438492,-0.007095,0.011078
-0.197479,-0.054565,0.558609,-0.005539,0.006638
-0.118423,-0.092239,0.465958,0.000275,0.003021
-0.094574,-0.108627,0.063217,-0.003525,-0.001511
-0.048477,-0.059372,-0.328262,0.002609,-0.002701
-0.002747,0.046280,-0.346848,0.009109,-0.000137
0.079834,0.102722,-0.548309,0.015015,0.004440
0.333069,0.094849,-0.468864,0.011078,0.008789
0.447281,0.065598,-0.389420,0.016479,0.008514
0.470512,0.040375,-0.065369,0.006180,0.002060
0.407970,0.017075,-0.238174,0.000275,-0.000870
0.345428,-0.005768,-0.396973,0.001144,0.006180
0.142456,-0.025681,-0.214050,-0.014374,0.007828
-0.058960,-0.021835,0.273193,-0.015747,-0.002655
-0.223389,-0.005997,0.593399,-0.012543,-0.002838
-0.348907,0.035522,0.630295,-0.017303,-0.001328
-0.394135,0.030441,0.539864,-0.008102,0.002014
-0.294250,0.017395,0.449432,0.005997,0.001144
-0.213318,0.022842,-0.021057,0.008102,0.005539
-0.104736,0.003891,-0.144058,0.002014,0.000137
0.023758,-0.004532,-0.095856,-0.002975,-0.002060
0.127991,-0.001373,-0.001236,-0.006500,0.006546
0.171249,-0.000046,-0.053879,-0.005173,0.008423
0.119385,0.002792,0.002609,-0.007599,-0.003525
-0.030579,-0.001785,0.073151,0.003616,0.000183
-0.127441,-0.024673,0.211258,0.003891,0.009796
-0.139481,-0.037033,0.093613,0.008148,0.001328
-0.087524,0.001694,-0.086609,0.005539,0.006821
0.031586,0.039780,-0.075302,-0.001602,-0.000046
0.114349,0.033417,-0.178024,-0.006683,0.004807
0.094940,0.033554,-0.544556,-0.002747,-0.000870
0.009384,0.016296,-0.514091,0.003250,0.004349
-0.071686,0.016342,-0.483627,0.003937,-0.001465
-0.154449,0.041016,0.029434,-0.001831,-0.001465
-0.219818,0.100983,0.373077,-0.014923,0.008011
-0.164154,0.178116,0.418488,-0.006500,0.000320
-0.076630,0.237900,0.249252,-0.005722,0.003799
-0.050674,0.200661,0.086472,0.003204,0.004990
-0.029114,0.163422,0.044174,0.015244,-0.001831
0.055664,-0.015564,0.041931,0.021332,0.011169
0.102539,-0.208649,-0.155823,0.029709,-0.001236
0.140808,-0.277313,-0.330231,0.023300,-0.004395
0.080933,-0.291321,-0.366852,0.012543,0.004623
0.029617,-0.264153,-0.269211,0.005997,0.000320
0.033234,-0.236984,0.081802,0.006500,0.004944
0.064087,-0.169739,0.496811,0.004395,0.002930
0.101349,-0.096085,0.480743,0.003891,-0.002197
0.153992,-0.009979,0.187820,-0.008469,0.010254
0.121216,0.047836,-0.060287,-0.013916,0.000320
0.105011,0.093018,0.021378,-0.030075,-0.004715
0.085098,0.088577,0.186539,-0.028427,0.007324
0.126938,0.094070,0.391846,-0.010254,0.008881
0.270584,0.114670,0.471588,0.010300,-0.001511
0.401001,0.147079,0.334305,0.020233,0.005630
0.400543,0.169785,-0.020645,0.016159,0.007004
0.229065,0.129272,-0.506195,0.016617,-0.002930
0.000870,0.027466,-0.659500,0.027832,0.004944
-0.172073,-0.081894,-0.539772,0.023209,0.009933
-0.257080,-0.199493,-0.420044,0.018814,0.006363
-0.330872,-0.246758,-0.058365,0.028061,0.001328
-0.324829,-0.250820,0.213867,0.023483,0.005585
-0.338791,-0.235342,0.362732,0.010117,0.005493
-0.303680,-0.219864,0.559891,-0.010117,-0.000824
-0.186813,-0.137421,0.650253,-0.028976,0.008926
-0.116867,-0.067886,0.467148,-0.026779,0.008926
-0.079330,-0.001144,0.153809,-0.029709,-0.001694
-0.053558,0.100616,-0.116318,-0.031723,0.001144
-0.008560,0.172394,-0.299469,-0.032318,0.008652
0.061386,0.206223,-0.307755,-0.024582,-0.002060
0.119385,0.260445,-0.251862,-0.016846,0.009521
0.193771,0.306828,-0.121078,-0.015884,-0.000458
0.245911,0.298502,0.018539,-0.005264,-0.002609
0.220734,0.236112,0.072098,0.003250,0.006180
0.138794,0.173721,0.092880,0.005630,-0.002335
0.026917,0.027832,0.187134,0.021057,0.003525
-0.118973,-0.100662,0.305008,0.029686,0.005814
-0.236343,-0.174042,0.013596,0.032238,-0.002838
-0.211258,-0.161545,-0.271271,0.030905,0.006180
-0.129501,-0.146255,-0.229797,0.029572,0.007919
-0.036392,-0.127213,-0.096725,0.005081,0.006912
-0.015289,-0.108810,0.010803,-0.008514,0.003891
-0.074478,-0.090134,0.044861,-0.010666,-0.001419
-0.090408,-0.077957,-0.083313,-0.004669,0.000320
-0.095032,-0.072327,-0.127670,-0.002426,0.005676
-0.125793,-0.052414,0.036346,-0.007782,0.006317
-0.140305,-0.040283,0.217438,-0.008926,0.007599
-0.106522,-0.017487,0.169144,-0.002975,0.006546
0.009750,-0.000412,0.026413,-0.007828,0.006363
0.168777,0.026779,0.079102,-0.011307,-0.002335
0.249847,0.029617,0.285461,-0.001144,-0.000961
0.259689,0.030167,0.164383,-0.001968,0.000320
0.226181,0.046280,0.031586,-0.008469,-0.002426
0.091553,0.060150,-0.329590,-0.001282,-0.000732
-0.049896,0.104462,-0.418167,-0.005630,0.000824
-0.114304,0.160492,-0.506744,-0.006088,0.002792
-0.053925,0.144745,-0.200958,-0.003708,0.000000
0.033600,0.101807,0.127121,0.006592,-0.001785
0.086151,0.008652,0.254562,0.003479,-0.000641
0.190292,-0.052414,0.234146,0.002609,-0.003571
0.196976,-0.087570,0.041016,-0.005081,-0.001144
0.051727,-0.116959,-0.034927,-0.006088,0.000320
-0.147949,-0.102585,0.153900,-0.009201,-0.003113
-0.278503,-0.076630,0.192764,-0.005585,-0.003342
-0.244537,-0.003799,-0.091599,-0.003387,-0.000183
-0.155640,0.071045,-0.434097,0.003754,-0.000732
-0.004623,0.137604,-0.365570,0.012222,0.003754
0.086334,0.141266,0.055847,0.012634,0.004120
0.112061,0.099701,0.511826,0.008606,0.006958
0.103134,-0.021149,0.589874,0.004761,0.002701
0.091370,-0.138062,0.459160,-0.005630,-0.000412
0.073517,-0.187866,0.328445,-0.008606,0.005585
0.083496,-0.191895,-0.488937,0.004578,0.005493
0.084961,-0.113708,-0.599510,0.001053,0.004440
0.068207,-0.022385,-0.395885,0.002060,0.005035
-0.009338,0.022705,-0.192261,0.015472,0.008423
-0.147903,0.060974,0.181961,0.008606,0.008789
-0.275528,0.098511,0.407959,-0.004166,0.006180
-0.269897,0.143005,0.356369,0.003799,0.003799
-0.174683,0.131058,-0.053970,0.006226,-0.002380
-0.041748,0.102859,-0.369461,0.014923,-0.003387
0.092102,0.013000,-0.218811,0.022293,-0.001923
0.142044,-0.118744,0.126297,0.021057,-0.000183
0.172211,-0.210205,0.386810,0.010300,-0.001373
0.227966,-0.236710,0.458450,-0.003799,-0.004669
0.280655,-0.175735,0.264404,-0.012955,-0.002060
0.259415,-0.095352,-0.023117,-0.015472,0.008148
0.162872,-0.050766,-0.221329,-0.014877,0.008423
0.027466,0.017899,-0.095627,-0.007004,0.004257
-0.078644,0.053787,0.179443,-0.009018,0.000229
-0.119019,0.090591,0.334396,-0.007507,-0.003342
-0.170700,0.101807,0.524551,0.001236,-0.003662
-0.157104,0.130234,0.529037,0.001785,0.000824
-0.112335,0.147079,0.139572,-0.001465,0.011581
-0.111420,0.127899,-0.081253,-0.008057,0.006546
-0.167358,0.113892,-0.305923,-0.006775,0.007919
-0.259277,0.088806,-0.648811,-0.002518,0.005173
-0.353577,0.031952,-0.879627,-0.001236,-0.004807
-0.362091,-0.042847,-0.866930,-0.003433,0.001740
-0.370605,-0.042160,-0.557817,0.003387,0.006866
-0.219681,-0.024673,-0.248703,0.006683,0.006592
-0.013550,-0.026642,0.212036,0.000092,0.005951
0.193039,-0.009842,0.350784,0.010254,0.000320
0.404297,-0.019455,0.414780,0.014832,-0.000366
0.545700,-0.047607,0.305878,0.018448,-0.000504
0.545792,-0.082626,0.163239,0.011902,-0.002243
0.432724,-0.074936,0.201324,-0.008743,-0.004440
0.319656,-0.003983,0.298828,-0.009659,-0.000824
0.069305,0.056168,0.445633,-0.004715,0.000320
-0.048477,0.049347,0.474609,-0.002335,0.003067
-0.043350,-0.049072,0.181046,0.006821,0.004074
0.053421,-0.153397,-0.149277,0.018677,0.010071
0.151062,-0.226181,-0.301758,0.010529,0.008789
0.168594,-0.243507,-0.263580,0.011948,0.005356
0.070129,-0.197559,-0.086243,0.012268,0.002701
-0.092834,-0.151611,-0.003799,-0.001282,-0.002106
-0.256256,-0.016800,0.051361,-0.017120,0.000320
-0.333618,0.077591,0.096634,-0.012909,-0.002197
-0.335037,0.113800,0.095169,-0.005539,0.000320
-0.252411,0.089218,0.070633,-0.015793,-0.000504
-0.055115,0.036346,0.140945,-0.017487,0.002792
0.125702,-0.028976,0.433594,-0.016571,0.002930
0.129501,-0.054886,0.493973,-0.007736,0.005951
0.050034,-0.017715,0.092422,0.009293,0.004944
-0.046875,0.048706,-0.572479,0.009796,0.005585
-0.138245,0.123322,-0.531601,-0.001373,0.006454
-0.196655,0.139801,-0.490723,-0.012360,0.008469
-0.153305,0.118469,-0.056900,-0.004395,0.011856
-0.108307,0.090820,0.422699,0.005219,0.009750
-0.059189,0.086838,0.634781,0.026688,0.007645
0.026047,0.089127,0.183563,0.032959,0.010391
0.068710,0.061523,-0.233551,0.023529,0.006409
0.093842,-0.008469,-0.372986,0.015518,0.007233
0.076630,-0.054153,-0.495987,0.025909,-0.002060
-0.008698,-0.090866,-0.507225,0.011261,-0.002609
-0.128860,-0.170654,-0.518463,0.005127,0.006363
-0.195007,-0.225677,0.196060,-0.015839,0.007599
-0.181274,-0.160126,0.625626,0.005493,0.003525
-0.160629,-0.074203,0.647095,0.013870,0.002655
-0.172348,0.059738,0.421234,-0.006134,-0.004898
-0.130051,0.133896,0.077133,-0.025772,-0.005356
-0.017807,0.184708,-0.190887,-0.029068,-0.004166
0.155548,0.199814,-0.218811,-0.025475,-0.000137
0.310364,0.135498,0.101257,-0.021881,0.002151
0.371933,0.026550,0.343323,-0.004211,0.000320
0.316177,-0.083633,0.293747,0.001648,0.004807
0.130554,-0.166901,-0.248016,-0.004303,0.007690
0.019180,-0.167404,-0.547623,0.002930,0.007599
0.040604,-0.121857,-0.465500,0.005402,0.008377
0.012405,-0.075897,-0.172760,0.001556,0.004440
-0.026093,-0.046783,0.226776,-0.005585,0.008652
-0.057037,-0.054337,0.477859,-0.006454,0.009659
-0.045044,-0.012497,0.397476,-0.003250,0.007278
-0.023483,0.044998,0.135773,0.003113,0.005539
0.013916,0.110962,-0.344696,0.000824,-0.002563
0.016205,0.179398,-0.534851,0.007095,-0.001373
0.120117,0.173218,-0.187363,0.007187,-0.002609
0.177338,0.106888,0.169144,0.004944,-0.003204
0.187820,0.002792,0.277176,0.002701,-0.001236
0.198624,-0.043076,0.271408,0.010025,-0.000595
0.147217,-0.032822,0.212219,0.002609,-0.004807
0.094940,-0.031998,0.126114,0.001602,-0.002701
0.076218,-0.037491,0.187088,0.008835,-0.000687
0.031403,-0.090500,0.143875,0.007736,-0.003296
-0.028244,-0.162598,-0.239960,0.005630,-0.004349
-0.101898,-0.220734,-0.334511,-0.009155,-0.003937
-0.200684,-0.203018,-0.429062,-0.007324,-0.004166
-0.280151,-0.142548,0.016113,-0.010254,0.000916
-0.307617,-0.039551,0.274933,-0.008469,0.006409
-0.294342,0.054886,0.348404,-0.010208,0.006821
-0.258545,0.128220,0.050125,-0.007324,0.004440
-0.202057,0.147537,-0.270813,0.011398,0.012131
-0.131744,0.132523,-0.049713,0.008148,0.006866
-0.097870,0.107849,0.383331,0.011078,0.005127
-0.030167,0.087112,0.504227,0.014420,0.008102
0.075806,0.096451,0.384979,0.011856,0.008789
0.158844,0.064087,0.183105,0.007324,0.007095
0.179031,0.045547,-0.052872,0.006500,0.000092
0.074982,0.021149,-0.059464,0.004990,-0.001511
-0.086792,-0.017853,-0.246872,0.006409,-0.000916
-0.210800,-0.092285,-0.610474,0.014282,-0.000687
-0.252228,-0.146530,-0.524185,-0.003891,0.004898
-0.183060,-0.154633,-0.437897,-0.013550,0.008606
-0.082855,-0.084412,0.108719,-0.008606,0.007187
0.080750,-0.011215,0.327347,-0.015472,-0.000366
0.282211,0.080750,0.342361,-0.010529,-0.002792
0.330551,0.133759,0.326569,-0.002243,-0.004486
0.281982,0.142136,0.131973,0.007736,0.003433
0.208008,0.132156,-0.025269,0.014603,0.005081
0.139526,0.070084,-0.062759,0.004440,0.001144
0.046234,-0.011719,0.165527,0.013184,0.001144
-0.014465,-0.091919,0.385300,0.007462,0.002609
-0.076447,-0.138885,0.288528,0.008835,0.005768
-0.088165,-0.141449,0.308487,-0.000320,0.006180
-0.058365,-0.090317,0.230484,-0.006638,0.007736
0.034653,-0.026962,-0.189102,-0.009888,0.008194
0.119980,-0.008743,-0.489029,-0.010162,0.008148
0.158386,-0.018265,-0.514709,0.000824,0.007828
0.191345,-0.060699,-0.187637,0.007874,0.007324
0.254150,-0.074707,0.348587,0.013046,0.006271
0.197021,-0.054474,0.400955,-0.004532,0.008743
0.102905,-0.028885,-0.199448,-0.006134,0.008057
-0.000824,0.000320,-0.403564,0.006180,0.007690
-0.111465,0.050262,-0.323273,-0.009064,0.009109
-0.172852,0.083817,-0.288162,-0.017258,0.005219
-0.252594,0.087753,-0.096359,-0.007095,-0.002289
-0.340897,0.063858,0.060562,-0.005264,0.000320
-0.427597,0.018677,-0.095901,0.012772,-0.001831
-0.481476,-0.005035,-0.320755,0.005905,-0.001419
-0.470604,0.010574,-0.261612,-0.004349,-0.000366
-0.359905,0.007416,0.097275,-0.000961,-0.000641
-0.249207,-0.013504,0.312744,-0.004761,0.003159
0.100708,-0.017029,0.440323,-0.002930,0.003799
0.381775,-0.022476,0.423386,-0.003571,-0.001831
0.553986,-0.035156,0.367493,-0.005127,-0.003799
0.574905,-0.065918,0.309677,-0.016296,-0.001282
0.458038,-0.056122,0.361725,-0.012726,0.003983
0.341171,0.008972,0.350235,0.010941,0.007004
0.114532,0.116318,0.098145,0.026917,0.006363
-0.063721,0.236160,-0.153946,0.019409,0.006271
-0.077408,0.263672,0.107300,0.017715,0.000778
-0.042480,0.224052,0.223801,0.013046,-0.001877
-0.045959,0.184433,-0.331055,0.015244,-0.003571
-0.003616,0.041016,-0.629517,0.005951,0.000137
0.044861,-0.096268,-0.655151,0.005630,0.004578
0.053879,-0.243439,-0.615829,0.000778,0.006958
-0.085327,-0.316383,-0.576508,0.010254,0.003891
-0.262939,-0.318569,-0.278549,-0.001328,0.008331
-0.357056,-0.248205,-0.031448,-0.005539,0.005997
-0.366943,-0.177841,0.182785,-0.003067,0.008789
-0.325333,-0.066238,0.459961,0.002380,0.005264
-0.265274,0.007416,0.585480,0.004944,0.006317
-0.226868,0.042572,0.429428,-0.001373,0.001556
-0.195557,0.020370,0.238632,-0.002243,-0.000458
-0.063217,-0.020737,0.258133,-0.007187,-0.002426
0.076263,-0.012634,0.005264,-0.004532,0.009338
0.228241,-0.012863,-0.217804,-0.000824,0.006180
0.384521,0.012314,-0.208374,-0.002792,0.002563
0.471817,0.034378,-0.065735,0.002426,-0.002930
0.446777,0.060654,0.081161,-0.007553,-0.002335
0.327896,0.115723,-0.028976,-0.000092,-0.002792
0.209015,0.195511,-0.008698,-0.003525,-0.001968
-0.002472,0.230438,-0.029617,0.001785,-0.004028
-0.168823,0.213066,-0.087158,0.007095,-0.000870
-0.279236,0.195694,-0.078232,0.006180,0.000320
-0.265503,0.069305,0.094070,0.011398,0.005447
-0.176926,-0.099335,0.176285,0.011078,0.007050
-0.070450,-0.202675,0.097412,0.004807,0.004990
-0.056168,-0.230358,-0.017899,-0.006958,0.006363
-0.088898,-0.196478,-0.047379,-0.012726,0.003525
-0.133026,-0.162598,-0.029434,-0.020508,0.001419
-0.110046,-0.046005,-0.028336,-0.014786,-0.003204
-0.076630,0.062576,-0.204758,-0.019730,-0.002747
-0.100891,0.166718,-0.338425,-0.006821,-0.001053
-0.084412,0.190750,-0.305328,-0.005356,-0.001144
-0.049530,0.214783,0.014053,0.004715,-0.000275
-0.012039,0.108719,0.396515,0.001373,-0.004715
0.002060,-0.048706,0.517090,0.002930,-0.002335
0.009521,-0.185440,0.565933,0.010895,0.000870
0.022705,-0.214096,0.328125,0.011353,0.008789
0.052002,-0.153809,-0.210617,0.016663,0.005402
0.052826,-0.096588,-0.543594,0.019135,0.005173
0.019226,-0.056808,-0.412766,0.013687,0.003433
0.096863,-0.008286,-0.287521,-0.002838,-0.002609
0.166443,0.020691,-0.117874,-0.008789,-0.004440
0.213135,0.032455,0.181961,-0.016937,-0.000595
0.197617,0.039871,0.189285,-0.007278,-0.000824
0.179901,0.061981,-0.057358,-0.004807,-0.003708
0.082672,0.072968,-0.053146,0.001785,0.001190
-0.018677,0.055939,0.099014,-0.000320,0.009109
-0.190063,0.029755,0.422012,0.000320,0.005951
-0.350006,0.024261,0.402145,-0.001282,0.008743
-0.378868,0.038864,0.280289,0.001602,0.004440
-0.294903,-0.012772,-0.008926,0.006500,0.005264
-0.210938,-0.031723,-0.381729,-0.001236,-0.001099
0.061661,-0.002014,-0.630386,0.005447,-0.004074
0.367218,0.027512,-0.374405,0.006134,-0.004761
0.477470,0.022293,-0.125656,0.011719,-0.002426
0.466770,0.003250,-0.070953,0.005997,0.001328
0.335970,-0.019638,0.046738,-0.001144,0.007919
0.205170,-0.032684,0.114853,-0.003159,0.009933
-0.028107,-0.051178,-0.055435,0.007187,0.007370
-0.171570,-0.048569,-0.163742,-0.001373,0.006821
-0.264221,-0.057678,0.195648,-0.000595,-0.002335
-0.276123,-0.032089,0.312973,-0.001236,-0.003433
-0.244629,-0.030441,0.324554,-0.004120,-0.000824
-0.163879,-0.021332,0.346802,-0.001282,0.001740
-0.147949,0.002197,0.136139,-0.001053,0.007553
-0.199402,0.033188,-0.412994,-0.025085,0.007370
-0.215103,0.072235,-0.492508,-0.005402,0.005585
-0.205307,0.084503,-0.311050,-0.005264,0.005402
-0.163147,0.081116,-0.003159,-0.007736,-0.002838
-0.062988,0.038086,0.309814,-0.006226,-0.001190
0.173767,0.027191,0.511322,0.013229,-0.001785
0.350281,-0.007324,0.418716,0.021378,-0.001785
0.410614,-0.062943,0.117416,0.021767,-0.002609
0.413200,-0.099792,-0.274521,0.022156,-0.000641
0.325436,-0.129593,-0.444122,0.010666,0.005264
0.237671,-0.114120,-0.576668,-0.004303,0.010254
0.016159,-0.073746,-0.339397,-0.012405,0.007141
-0.126114,-0.030899,-0.102127,-0.014191,0.005493
-0.240143,0.009750,0.525696,-0.016617,0.003250
-0.326294,0.079697,0.698845,-0.008789,0.006134
-0.339020,0.141632,0.653172,0.013962,0.003983
-0.318741,0.221924,0.607498,0.003204,0.003754
-0.216202,0.224487,0.463531,0.008606,0.004257
-0.130280,0.194321,-0.043900,0.011078,-0.000092
-0.095215,0.113159,-0.679230,-0.017120,-0.001236
-0.032959,0.006180,-0.924133,-0.024673,-0.001602
-0.001282,-0.134445,-0.719536,-0.006180,-0.001648
-0.050171,-0.206909,-0.514938,0.003571,-0.002289
-0.001465,-0.161865,0.109131,-0.011444,-0.002426
0.098694,-0.072647,0.422195,-0.018539,-0.002197
0.215012,0.020828,0.467972,-0.021011,-0.001282
0.314941,0.059967,0.457764,-0.008148,-0.004852
0.379074,-0.011398,0.192215,0.019547,-0.000870
0.394409,-0.134674,-0.127579,0.027122,-0.003983
0.319794,-0.218307,-0.211075,0.020428,-0.003708
0.163696,-0.226822,0.087524,0.013733,0.002472
0.020416,-0.190887,0.407227,-0.005539,0.000320
-0.049072,-0.146393,0.465912,-0.004532,0.001602
-0.173218,-0.068756,0.453735,-0.007370,0.001831
-0.278320,0.002151,0.514160,-0.020279,0.006409
-0.297363,0.068848,0.259003,-0.022705,0.009979
-0.328125,0.163193,-0.184387,-0.019043,0.001465
-0.341858,0.224762,-0.410568,-0.004578,-0.001282
-0.372070,0.246620,-0.330322,-0.004257,-0.001831
-0.378113,0.245922,-0.073929,0.012222,0.002609
-0.379120,0.187300,0.129547,0.005585,0.005081
-0.308807,0.128677,0.006454,0.014877,0.007095
-0.109634,-0.066376,-0.578430,0.024994,0.008514
0.182510,-0.195694,-0.486420,0.019775,0.008835
0.433159,-0.270607,-0.394409,0.028564,0.000183
0.597805,-0.278332,-0.017303,0.015060,0.000320
0.678297,-0.233831,0.151794,0.006775,-0.002838
0.656539,-0.189331,0.241379,0.002655,-0.004623
0.549415,-0.071457,0.308624,-0.010254,-0.002975
0.370220,0.010803,0.309677,-0.024307,-0.000778
0.191025,0.078049,0.149963,-0.020187,-0.002426
-0.053421,0.123367,-0.007095,-0.018860,0.008972
-0.261841,0.134995,-0.100296,-0.015839,0.009842
-0.397522,0.084869,0.008102,-0.012177,0.008560
-0.481705,0.071045,0.167953,-0.005035,0.007187
-0.515511,0.082672,0.029663,-0.010071,-0.000504
-0.504261,0.105515,-0.033966,-0.005768,-0.003799
-0.434984,0.086792,0.070404,-0.002380,-0.004120
-0.365707,0.080887,-0.117828,0.000320,-0.001190
-0.187180,0.093887,-0.280472,0.001053,-0.000961
0.054108,0.135406,-0.194458,0.000229,-0.001465
0.237534,0.133621,-0.142593,0.017670,0.000320
0.309082,0.067703,0.020187,0.018448,0.007553
0.321716,-0.043213,0.341721,0.018585,0.004623
0.238403,-0.174454,0.530708,0.011353,0.004944
0.092102,-0.247009,0.533581,0.008148,0.007690
-0.032867,-0.238998,0.536453,-0.002197,0.008011
-0.136642,-0.188461,0.190933,0.002289,0.007095
-0.235291,-0.151108,-0.072739,0.003250,0.000778
-0.261658,-0.119064,-0.564514,0.005585,-0.002518
-0.197205,-0.060150,-0.711296,-0.008698,-0.000870
-0.057037,0.029892,-0.609066,-0.008926,-0.001877
0.102539,0.116730,-0.506836,-0.010437,-0.000595
0.261932,0.175781,-0.310959,-0.000183,-0.001144
0.325424,0.195053,-0.139618,-0.001282,0.001968
0.345886,0.183472,0.001785,0.004623,0.002701
0.357742,0.145340,0.396423,0.001144,0.000320
0.239319,0.073242,0.665977,-0.000046,0.003021
0.115814,0.000961,0.784138,-0.015381,0.002243
-0.038452,-0.041107,0.691080,-0.004990,-0.000137
-0.181274,-0.042206,0.598022,-0.005035,0.001694
-0.272781,-0.041702,-0.184845,-0.004395,0.007050
-0.327072,-0.031815,-0.715851,0.006180,0.008972
-0.364838,-0.032043,-0.743568,-0.008194,0.009064
-0.299469,-0.034332,-0.386410,0.014648,0.009613
-0.184570,-0.096359,-0.029251,0.008423,0.005951
-0.112015,-0.129730,0.302078,0.004990,0.005630
-0.094803,-0.102264,0.011536,0.001236,0.000732
-0.082672,-0.071640,-0.237762,-0.000870,0.001007
-0.054337,-0.048340,-0.025543,-0.000687,-0.000732
0.022705,-0.031631,0.203384,-0.006592,-0.000137
0.155777,-0.014145,0.322037,0.000183,-0.003708
0.310318,0.017899,0.409973,0.009659,-0.003021
0.423386,0.070633,0.412628,0.009109,-0.000687
0.467216,0.124924,0.371704,-0.000641,0.000320
0.460201,0.159302,0.112701,-0.002197,0.000778
0.417486,0.133072,-0.267334,-0.011810,-0.001785
0.374771,0.050766,-0.358154,-0.009842,-0.000961
0.231995,-0.014328,-0.191574,0.012543,0.005951
0.077820,-0.065277,0.217163,0.001694,0.004898
-0.089355,-0.072006,0.434052,-0.003479,0.006042
-0.261658,-0.048340,0.534668,0.001694,0.000046
-0.428925,0.027740,0.539154,0.013412,-0.002335
-0.514297,0.083130,0.303268,0.010345,0.000275
-0.482964,0.105469,-0.185074,0.004395,0.007690
-0.366909,0.100845,-0.741577,-0.009338,0.007370
-0.250854,-0.012726,-0.944206,0.000092,0.005310
-0.062988,-0.173813,-0.675167,0.007782,0.008148
0.086426,-0.259666,-0.406128,0.012314,0.003571
0.143921,-0.274899,0.313568,-0.001190,0.008057
0.139526,-0.197668,0.467514,-0.008377,0.008194
0.137329,-0.120438,0.357376,0.000320,0.008606
0.161316,0.042252,0.098785,0.001694,0.011032
0.124191,0.136276,-0.028061,-0.000412,0.009567
0.060379,0.166397,-0.074478,-0.008148,0.005859
-0.022476,0.192123,0.195740,-0.000046,0.006134
-0.046555,0.198441,0.479507,-0.002426,0.004990
-0.020187,0.176468,0.565201,0.011261,0.003662
0.037399,0.079926,0.349503,0.031036,-0.000778
0.098694,-0.016571,0.245087,0.023758,-0.003342
0.184753,-0.107117,0.249115,0.002701,-0.002838
0.246643,-0.137100,0.092285,-0.006409,-0.000366
0.208420,-0.115860,-0.370834,-0.022568,0.009109
0.095215,-0.091141,-0.590240,-0.010620,0.007004
-0.004532,-0.016891,-0.448105,0.007736,0.009659
-0.066971,0.044449,-0.305969,-0.002655,0.003250
-0.144882,0.052002,0.014603,-0.016434,-0.001419
-0.251587,0.074890,0.132385,-0.030212,0.004349
-0.354080,0.063629,0.226364,-0.011124,0.007141
-0.398758,0.033646,0.224167,-0.003433,0.006683
-0.310867,0.009796,0.223846,0.001511,-0.001740
-0.125473,-0.008835,0.157562,0.006180,-0.002792
0.024765,-0.022568,0.296585,0.013458,0.001785
0.200684,-0.049713,0.492279,0.008789,0.007507
0.306885,-0.084274,0.566437,0.011124,0.006317
0.392097,-0.129822,0.495941,0.002792,0.006775
0.404835,-0.160583,0.116364,-0.006775,-0.000320
0.284998,-0.148132,-0.360031,-0.001007,0.001144
0.165161,-0.090546,-0.452705,-0.000458,0.001099
-0.139893,-0.028976,-0.545380,0.006775,-0.000504
-0.369690,0.016663,-0.028473,-0.000870,-0.004166
-0.386581,0.056992,0.300568,-0.004623,-0.003571
-0.403473,0.132294,-0.186905,-0.009430,-0.000504
-0.206543,0.162048,-0.605461,-0.005356,-0.001465
0.022522,0.184525,-0.535755,-0.003296,0.005493
0.147949,0.196106,-0.466049,-0.000824,0.009705
0.130234,0.210251,0.099152,-0.004669,0.006683
-0.033096,0.188324,0.488251,-0.008698,0.002609
-0.216248,0.162140,0.445633,-0.016617,-0.003571
-0.338333,0.048111,0.336685,-0.015793,0.003067
-0.350006,-0.104141,0.303589,0.003662,0.010574
-0.233231,-0.222771,0.118835,0.019226,0.007828
0.052368,-0.280529,0.052414,0.018448,0.004532
0.330872,-0.245573,0.116455,0.013824,0.001694
0.427116,-0.210617,0.127762,0.003250,-0.000137
0.436832,-0.064774,-0.106201,0.006683,-0.001602
0.374308,0.058685,-0.250763,0.005081,-0.001968
0.311783,0.121033,-0.150284,0.009476,-0.000046
0.181000,0.107437,0.063309,0.003616,0.005081
0.115173,0.072647,0.156509,-0.007004,0.007645
0.078369,0.008240,0.362778,-0.000641,0.007919
0.040558,-0.075302,0.408920,0.000092,0.008194
-0.008057,-0.104874,0.346527,-0.003708,0.008881
-0.062393,-0.081207,0.255203,0.002701,0.006729
-0.097366,-0.016754,0.042297,0.006134,0.002060
-0.172440,0.026871,-0.287384,0.003754,-0.005219
-0.225220,0.050812,-0.609100,0.010254,-0.001099
-0.251587,0.063721,-0.539429,0.000046,0.005859
-0.276031,0.080795,-0.131653,-0.004303,0.009659
-0.372620,0.075714,0.048660,-0.002380,0.004166
-0.454514,0.054474,-0.219406,0.010071,-0.002335
-0.455956,-0.006821,-0.439133,0.014786,-0.002289
-0.343105,-0.075439,-0.152481,0.009842,-0.003113
-0.230255,-0.072510,0.221100,0.008148,0.006317
0.063263,-0.060104,0.226639,0.005539,0.010391
0.403427,-0.034103,-0.070816,-0.003296,0.007874
0.506767,-0.022202,-0.218536,-0.009476,0.006958
0.470547,-0.029022,-0.134262,-0.005219,0.007370
0.340902,-0.005219,0.096588,-0.007370,0.009842
0.211258,0.013229,0.277954,-0.008972,0.009109
0.036530,0.051224,0.353073,-0.007004,0.009430
-0.043671,0.092056,0.378799,-0.005356,0.011169
0.007736,0.127853,0.415787,0.005493,0.006134
0.129181,0.149048,0.252686,0.004715,0.005997
0.248840,0.147125,0.219727,0.003159,0.002792
0.270355,0.139801,0.335175,0.001190,0.011490
0.210846,0.098465,0.403839,0.006180,0.010620
0.053925,0.018082,0.209473,0.007095,0.008698
-0.098145,-0.095215,-0.337280,-0.002289,0.010941
-0.265045,-0.209473,-0.537025,0.015472,0.009430
-0.413361,-0.223961,-0.493298,0.000000,0.004074
-0.506790,-0.238449,-0.449570,0.003479,0.006180
-0.546295,-0.125748,-0.329041,-0.004211,0.009293
-0.513771,-0.027603,-0.339294,0.001144,0.006500
-0.412617,0.020508,-0.252365,-0.002106,0.008148
-0.311462,0.060059,0.030258,-0.008102,0.000732
-0.057083,0.027832,0.345428,0.002701,0.001328
0.200867,0.023758,0.402237,0.016296,0.007736
0.392303,0.009293,0.304596,0.014511,0.010208
0.470421,0.006088,0.208923,0.017715,0.006912
0.490025,0.006454,0.059555,0.014191,0.008102
0.460573,0.012039,0.041245,0.006454,0.002792
0.356400,0.020828,-0.075302,-0.008469,-0.003571
0.252228,0.016983,-0.157013,-0.012680,-0.004532
0.101166,0.027832,-0.137833,-0.010071,0.001602
-0.007233,0.039276,0.081161,-0.010895,0.000320
0.001328,-0.010117,0.083908,-0.007233,0.006821
0.007553,-0.054382,-0.124649,-0.012772,0.010757
-0.075394,-0.076675,-0.061752,-0.009933,0.007507
-0.171982,-0.030624,0.085007,-0.026596,0.010300
-0.200180,0.064545,0.117508,-0.030807,0.008743
-0.268616,0.160767,0.038773,-0.011169,0.005356
-0.432083,0.215973,0.170197,0.005219,0.005859
-0.492348,0.189606,0.270859,0.012177,0.000320
-0.468990,0.083633,0.164291,0.019638,-0.003571
-0.378416,-0.056625,-0.104050,0.020920,-0.002884
-0.287842,-0.180038,-0.088989,0.024902,0.000320
0.015976,-0.227051,-0.163742,0.031219,-0.000824
0.332611,-0.225037,-0.037354,0.027191,0.000320
0.512741,-0.198715,-0.049072,0.013550,-0.001785
0.551788,-0.134079,0.071960,-0.001373,-0.002701
0.530594,-0.074295,-0.043671,-0.020004,-0.002609
0.467514,-0.027283,-0.228424,-0.025681,0.002289
0.404434,0.029617,-0.089767,-0.025635,0.006180
0.207413,0.094070,0.181641,-0.026276,0.009933
0.001099,0.128906,0.352386,-0.020142,0.008057
-0.130280,0.169006,0.444946,-0.026367,0.006912
-0.191071,0.201233,0.005447,-0.008560,0.007141
-0.238220,0.207275,-0.527344,0.002151,0.007324
-0.330414,0.162918,-0.523567,-0.000870,0.007050
-0.384064,0.089630,-0.519791,0.001328,0.005630
-0.402122,-0.017441,-0.344101,0.012085,0.008057
-0.365582,-0.134079,0.024261,0.032318,0.006409
-0.329041,-0.201736,0.190247,0.031311,0.006134
-0.144791,-0.229340,0.156830,0.024811,0.005997
0.032043,-0.207733,-0.096909,0.026001,0.004898
0.202560,-0.126251,-0.381592,0.015244,-0.003387
0.354126,-0.041382,-0.291092,0.004578,-0.001099
0.391502,0.018494,0.059280,0.001511,-0.004120
0.331112,0.017441,0.433685,-0.011810,-0.004395
0.270721,-0.057861,0.512375,-0.018219,-0.004166
0.072144,-0.153351,0.447464,-0.012222,-0.003891
-0.020508,-0.188232,0.323593,-0.006134,-0.004623
0.012817,-0.120300,0.310181,-0.007187,-0.002609
0.135773,0.009796,0.241928,-0.007324,-0.006088
0.320297,0.135498,0.158936,-0.003891,-0.003571
0.319748,0.187820,0.070633,0.000275,-0.001373
0.319199,0.158066,0.032913,0.012955,0.002792
0.138199,0.076904,0.025635,0.028107,0.001785
-0.043762,-0.002609,0.143967,0.015518,0.003983
-0.156097,-0.056442,-0.037582,-0.005997,0.006958
-0.226868,-0.046692,-0.193222,-0.012177,0.009796
-0.280014,-0.057404,-0.091324,-0.000320,0.010208
-0.315857,-0.069992,-0.251266,0.001694,0.002747
-0.283813,-0.055664,-0.551056,-0.005768,0.004257
-0.351379,-0.002518,-0.562180,0.001144,0.004166
-0.441444,0.051453,-0.446777,0.014786,0.003799
-0.444592,0.090225,-0.288528,0.002243,0.001648
-0.349646,0.115311,-0.155411,0.002060,0.002563
-0.254700,0.138519,-0.243713,-0.006683,0.006134
-0.069992,0.158203,-0.182968,-0.015610,0.009384
0.091736,0.148453,0.051270,-0.020050,0.009109
0.184250,0.145752,0.410294,-0.014511,0.009109
0.305008,0.131012,0.593033,0.003662,0.010483
0.381592,0.068985,0.600540,0.001694,0.003799
0.354584,-0.040421,0.560715,0.010071,-0.003113
0.340805,-0.116043,0.480560,0.000320,-0.000458
0.309265,-0.171661,0.249161,-0.001373,0.000320
0.205994,-0.195053,0.197342,-0.006912,0.002197
0.075851,-0.139572,0.257767,-0.002701,-0.005356
-0.007141,-0.031906,0.338516,-0.004669,-0.003525
-0.070679,0.045090,0.180450,0.002563,-0.005905
-0.093933,0.044266,-0.232681,0.005630,-0.000641
-0.002838,-0.022705,-0.540985,0.006958,0.000320
0.084137,-0.090546,-0.845833,0.006683,0.005402
0.076721,-0.158478,-0.855663,0.000824,0.002975
-0.039413,-0.200821,-0.474546,0.010300,-0.001465
-0.187225,-0.166672,-0.093430,0.002655,-0.001282
-0.207275,-0.057999,0.404617,0.003891,-0.001465
-0.131287,0.080704,0.416107,-0.000504,0.000870
-0.055344,0.174637,0.195648,-0.008469,0.002380
0.035797,0.198257,0.027557,0.004807,0.002335
0.105011,0.100616,-0.072006,0.020279,0.006958
0.140396,-0.056900,0.178299,0.018677,0.006958
0.087524,-0.187225,0.337234,0.012817,0.009430
-0.015015,-0.237808,0.316589,-0.001511,-0.001923
-0.049988,-0.222885,0.254105,-0.023300,0.007324
-0.049026,-0.150009,0.124374,-0.023529,0.005173
-0.083313,-0.002518,-0.072372,-0.015518,-0.002975
-0.145020,0.156097,-0.171387,-0.007736,0.005997
-0.226044,0.265274,-0.229568,-0.006042,0.008560
-0.273010,0.302765,-0.499512,-0.007050,0.000320
-0.226685,0.246231,-0.275574,-0.007050,0.003159
-0.082214,0.189697,0.081711,-0.004715,0.006409
0.061340,-0.012589,0.189651,0.025909,-0.002014
0.192719,-0.151337,0.272461,0.023758,0.000320
0.252502,-0.189514,0.251541,0.012543,0.012405
0.216064,-0.159393,0.064224,0.001785,-0.000778
0.221237,-0.114578,-0.078781,-0.011353,0.000320
0.266693,-0.042801,-0.018311,-0.001602,-0.001465
0.265640,0.031036,0.010895,-0.019089,-0.001785
0.210342,0.063126,-0.191849,-0.014511,-0.004486
0.172028,0.015335,-0.174408,-0.012497,-0.002060
0.104828,-0.044998,0.242432,0.010986,0.004578
-0.032455,-0.055344,0.245773,0.017899,0.004852
-0.254288,-0.034744,0.095947,0.013046,0.005447
-0.464241,-0.033005,0.090088,0.017853,0.007050
-0.582928,0.004990,0.121582,0.005402,0.007919
-0.552206,0.065552,-0.083633,-0.010757,0.008423
-0.373973,0.129272,-0.444122,0.000000,0.006180
-0.195740,0.220871,-0.518280,0.003662,0.005722
0.172668,0.220390,-0.289719,-0.005310,0.004211
0.420181,0.219910,-0.089081,-0.010300,0.008240
0.545586,0.130554,0.039505,-0.013824,0.008423
0.508129,-0.008926,0.271179,0.007553,0.007507
0.389746,-0.203430,0.531418,0.024261,0.007874
0.271362,-0.274406,0.474426,0.001511,0.006821
0.049622,-0.284100,0.417435,-0.012085,0.006592
-0.112335,-0.255026,-0.171661,-0.008469,0.008789
-0.159302,-0.225952,-0.490723,0.006180,0.009109
-0.150330,-0.167313,-0.289307,-0.003799,0.008560
-0.194412,-0.090271,-0.096680,0.003250,0.009384
-0.297043,0.009933,-0.234512,0.002655,0.010345
-0.425560,0.110779,-0.341949,-0.001373,0.007736
-0.481213,0.220207,-0.105286,-0.006775,0.009705
-0.437582,0.264416,0.220459,-0.011353,0.007965
-0.393951,0.205336,0.222198,0.001877,0.006729
-0.120758,0.146255,0.137421,0.001053,0.005173
0.236755,-0.001831,0.122910,0.009109,-0.003204
0.418304,-0.152435,0.322769,0.001144,0.000275
0.506378,-0.246368,0.164154,0.000000,0.004623
0.490128,-0.246140,0.107071,-0.004944,0.005173
0.354607,-0.179901,-0.032959,-0.013687,0.009842
0.219086,-0.130051,-0.313156,0.003159,0.009109
0.005585,-0.027420,-0.510910,-0.008469,0.007507
-0.044632,0.036942,-0.356277,-0.007828,0.007416
-0.012451,0.121353,-0.138428,-0.008469,0.006775
-0.019547,0.187042,0.023666,-0.008194,0.003937
-0.016251,0.209793,0.005219,-0.000229,0.000092
0.034012,0.135086,-0.085464,0.001373,-0.001236
0.038544,-0.004852,-0.092377,0.018448,-0.001053
-0.020096,-0.114029,0.241058,0.018448,-0.000732
-0.053604,-0.167267,0.560303,0.030441,-0.002289
-0.089951,-0.166122,0.618210,0.017807,0.006409
-0.124878,-0.108536,0.331032,0.009109,0.010208
-0.175049,-0.074982,0.043854,0.009521,0.009979
-0.136780,-0.066513,-0.344032,0.003799,0.000320
-0.063171,-0.058685,-0.421429,0.002701,-0.002335
-0.061981,-0.058823,-0.498825,-0.007187,-0.000870
-0.094116,-0.052963,-0.372299,-0.016937,0.005081
-0.030396,-0.003891,-0.126297,-0.008469,0.011673
0.008423,0.045868,0.236664,-0.002197,0.008835
0.010437,0.075897,0.502762,0.008057,0.002609
-0.023987,0.119522,0.608093,0.008240,0.001007
0.006866,0.143692,0.484268,0.001877,-0.001511
0.097549,0.102036,0.214691,-0.005035,0.002884
0.189331,0.087936,0.003250,0.004898,0.007828
0.175690,0.058594,-0.386627,-0.002518,0.002380
0.138199,0.021698,-0.505096,-0.031540,0.000320
0.033142,0.042709,-0.289536,-0.019089,0.002930
-0.061890,0.072006,-0.070084,-0.017578,0.002609
-0.085602,0.074936,0.125198,-0.011078,0.005447
-0.115311,0.014694,0.263763,0.003799,0.005219
-0.211578,-0.073242,0.240005,0.019455,0.009109
-0.300613,-0.156555,0.184891,0.022797,0.009109
-0.253189,-0.196655,0.012131,0.013779,0.000275
-0.134125,-0.210983,-0.340027,0.012589,-0.002197
0.112930,-0.167313,-0.513931,0.006454,-0.002609
0.291321,-0.128952,-0.460190,-0.001419,-0.001144
0.288437,-0.037262,-0.410019,-0.004257,0.007828
0.227417,0.051224,-0.192261,-0.001923,0.008881
0.289444,0.121033,0.232544,-0.001190,0.010574
0.356049,0.180359,0.568680,0.005722,0.007050
0.317139,0.181961,0.545700,0.013046,0.003708
0.235886,0.138016,0.522720,0.023758,0.004807
0.072693,0.063766,0.317505,0.013275,-0.003204
-0.212952,-0.030945,-0.048340,-0.005127,0.006180
-0.474266,-0.082214,-0.300659,-0.021240,0.009796
-0.652164,-0.090591,-0.567444,-0.015884,0.008743
-0.679590,-0.028107,-0.453873,-0.013229,0.001144
-0.520841,0.021240,-0.340302,-0.018356,-0.000137
-0.362091,0.061935,0.318695,-0.003067,-0.003662
0.137878,0.095947,0.436272,0.003525,-0.002197
0.481110,0.103683,0.553848,-0.001282,0.004120
0.624435,0.027191,0.175552,0.011078,0.003479
0.589531,-0.100433,-0.150925,0.013824,-0.002930
0.469082,-0.142044,-0.390152,0.002060,-0.001007
0.348633,-0.113617,-0.607956,-0.003662,-0.002792
0.170700,-0.067795,-0.502121,-0.011627,-0.002014
0.017670,-0.030533,-0.240326,0.010117,-0.004486
-0.169785,-0.060699,0.258133,0.011719,0.003891
-0.284409,-0.118103,0.644440,0.002930,0.007507
-0.300247,-0.173080,0.483238,-0.003250,-0.001099
-0.341034,-0.146851,0.322037,-0.005859,-0.002792
-0.391891,-0.063126,-0.166626,-0.003983,0.000320
-0.419975,0.038040,-0.634232,-0.009064,0.000320
-0.421085,0.111649,-0.611572,-0.021103,0.006180
-0.396830,0.193817,-0.399307,-0.022614,0.006866
-0.372574,0.225677,-0.084686,-0.009293,0.008652
-0.213867,0.183014,0.199310,-0.009018,0.004623
0.048523,0.144882,0.182739,0.001785,0.001877
0.325790,0.093430,0.065918,0.009750,0.000320
0.533043,0.057220,-0.006821,0.018997,0.002609
0.612453,0.026688,0.001785,0.025726,0.000000
0.570997,-0.020416,-0.003159,0.018997,0.002151
0.429236,-0.095490,0.201096,0.009384,0.000320
0.287476,-0.143417,0.334213,0.010483,0.000046
0.051910,-0.158432,0.359985,0.000320,0.002151
-0.082535,-0.192810,0.386032,-0.002930,0.000320
-0.123596,-0.171524,0.421875,-0.005310,-0.002930
-0.196472,-0.124191,0.330139,0.000229,-0.003983
-0.257217,-0.069260,0.345291,-0.006317,-0.003387
-0.253784,0.012268,0.105331,-0.012268,0.000320
-0.199905,0.153763,-0.407181,-0.009888,0.003525
-0.138611,0.219360,-0.601547,-0.008698,0.007553
-0.095856,0.203888,-0.634048,0.001511,0.006180
-0.088715,0.085281,-0.440598,0.001694,0.003479
-0.128174,-0.016525,-0.200912,0.016205,-0.004074
-0.095215,-0.126160,0.154953,0.000320,-0.003571
0.005859,-0.165848,0.519791,0.000732,-0.002518
0.033691,-0.165482,0.562935,-0.003571,0.000320
-0.051270,-0.104004,0.606079,-0.011719,0.006271
-0.224258,0.000275,0.172852,-0.008972,0.006958
-0.322815,0.135864,-0.567398,-0.012451,-0.002838
-0.343140,0.235703,-0.850433,-0.007416,-0.002563
-0.287292,0.283264,-0.686874,0.001328,0.002426
-0.153534,0.240211,-0.523315,0.002930,0.007599
-0.017258,0.197159,-0.196930,0.013596,0.004257
0.147217,-0.043030,-0.176010,0.031586,-0.003662
0.349869,-0.211143,-0.054565,0.019089,0.010712
0.445152,-0.250751,0.333252,0.005859,0.005676
0.549900,-0.167925,0.607178,-0.003204,-0.001648
0.613764,-0.085098,0.741737,0.004578,0.005493
0.598111,0.002747,0.689632,0.003204,0.004807
0.497725,-0.026230,0.637527,0.009613,-0.001511
0.397339,-0.166855,0.258133,0.017853,0.006134
0.145981,-0.266670,-0.039871,0.016846,0.009109
-0.134125,-0.273159,0.031769,0.005630,-0.000824
-0.381958,-0.178991,-0.026962,-0.012589,-0.001282
-0.509926,-0.084824,-0.197983,-0.025726,0.002792
-0.546169,0.105469,-0.090820,-0.019455,0.007416
-0.494963,0.211258,-0.147720,-0.030396,0.006958
-0.365012,0.251816,-0.516769,-0.009155,0.000092
-0.235062,0.266190,-0.428101,0.014053,0.002472
-0.020142,0.255432,-0.200043,0.017715,0.008194
0.044769,0.246094,-0.243210,0.019135,0.010849
-0.004211,0.236755,-0.426132,0.009521,0.006409
-0.043854,0.197891,-0.412125,-0.003067,-0.002838
-0.039780,0.139664,-0.235748,-0.003159,-0.000595
-0.069443,0.018311,0.126709,0.007004,0.008194
-0.111694,-0.129822,0.374725,0.012543,0.006729
-0.112427,-0.240372,0.461426,0.000275,-0.001236
-0.029114,-0.237007,0.464081,-0.003387,-0.000504
0.125061,-0.233643,0.327988,-0.011948,0.008881
0.332611,-0.189148,0.238770,-0.024216,0.010345
0.477859,-0.120026,0.117508,-0.013824,0.003845
0.573097,-0.034790,0.132843,-0.008057,-0.004395
0.559925,0.063995,0.218262,-0.004257,-0.000916
0.450502,0.095718,0.172760,-0.000412,0.007965
0.341080,0.096451,0.092331,0.013504,0.003250
0.132935,0.087112,0.234695,0.029617,0.007324
-0.038086,0.115723,0.106705,0.028244,0.002930
-0.159302,0.147537,-0.153580,0.020096,0.002014
-0.328491,0.118195,-0.140488,-0.002609,-0.002151
-0.476074,0.095444,0.027603,-0.029846,-0.004211
-0.611366,0.046234,-0.073563,-0.028702,-0.003113
-0.697758,-0.005035,-0.344833,-0.027489,0.005951
-0.645578,0.017990,-0.650024,-0.026276,0.007370
-0.461171,0.038910,-0.690857,-0.020828,0.011353
-0.276764,0.070633,-0.445999,-0.005539,0.007645
0.006592,0.082443,-0.201141,0.007324,0.002014
0.236801,0.126709,0.095444,0.013184,-0.003067
0.393311,0.184296,0.133255,0.027374,-0.000092
0.385437,0.133896,0.129868,0.028107,-0.000778
0.377563,-0.001877,0.053467,0.027008,0.009384
0.222061,-0.170151,0.038406,0.029892,0.006180
0.056076,-0.249870,0.152252,0.032776,0.008148
-0.121216,-0.271694,0.454788,0.020599,0.005310
-0.212219,-0.273382,0.547096,0.001877,0.003616
-0.204025,-0.235934,0.639404,-0.029892,-0.000320
-0.167313,-0.198486,0.461700,-0.013412,-0.000870
-0.138977,-0.083221,0.291550,-0.018723,0.001053
-0.063263,0.058182,0.173355,-0.031815,0.005219
0.010345,0.159302,-0.238037,-0.030350,0.009018
0.077271,0.231171,-0.579071,-0.009109,0.009064
0.169281,0.234100,-0.699028,0.000092,0.000275
0.283447,0.196014,-0.619709,0.010117,-0.003525
0.428192,0.108398,-0.540390,0.017258,0.000137
0.465912,-0.025726,0.004807,0.025681,0.001602
0.372299,-0.147491,0.372940,0.020187,0.003891
0.278687,-0.246323,0.395279,0.003525,0.005997
0.012451,-0.239960,0.430984,-0.000870,-0.000732
-0.172119,-0.233597,0.441971,0.003250,-0.005905
-0.299103,-0.156876,0.405487,0.008606,-0.001831
-0.373009,-0.003525,0.329132,-0.000549,0.007919
-0.408932,0.167130,0.078781,-0.013275,0.007324
-0.404783,0.221054,-0.315491,-0.012589,0.006409
-0.400635,0.234467,-0.645721,-0.009018,-0.001648
-0.288208,0.198669,-0.415054,0.008469,-0.005081
-0.173584,0.162872,-0.026917,0.005493,0.005356
0.015198,-0.007416,0.086609,0.005814,0.008789
0.222519,-0.124741,0.000320,0.026505,0.007507
0.328125,-0.167404,-0.264496,0.013779,-0.000229
0.359070,-0.229156,0.002930,-0.023117,-0.002609
0.272644,-0.244835,0.340210,-0.030670,0.000000
0.159439,-0.213444,0.523819,-0.020737,-0.002243
0.014099,-0.182053,0.485001,-0.014648,-0.001465
-0.119385,-0.107620,0.150421,-0.013229,0.001694
-0.199585,0.009064,-0.236252,-0.015930,-0.003616
-0.142914,0.116043,-0.440094,-0.019913,-0.004852
-0.019775,0.216156,-0.483078,-0.016205,0.000046
0.120346,0.290657,-0.612442,-0.007782,0.003525
0.186035,0.288174,-0.295303,0.018219,0.006454
0.230713,0.198721,-0.054794,0.028381,0.007599
0.271912,0.109268,0.010849,0.043808,0.009018
0.288437,-0.091553,0.008011,0.041817,0.005127
0.241745,-0.231262,0.226593,0.023609,-0.001236
0.088120,-0.246964,0.517502,0.005402,-0.004028
-0.040100,-0.190155,0.607910,-0.008469,-0.000687
-0.183014,-0.113022,0.539429,-0.024673,0.009705
-0.291779,-0.027832,0.470947,-0.027649,0.010483
-0.346985,0.016068,0.376419,-0.021744,0.012543
-0.340118,0.021240,0.043076,-0.013412,0.010254
-0.271133,-0.005219,-0.394913,-0.010574,0.001099
-0.102905,-0.010986,-0.637665,0.019318,-0.003021
0.083359,0.029617,-0.758423,0.009064,-0.002197
0.181274,0.115723,-0.800766,0.008926,-0.002335
0.218811,0.175095,-0.666985,-0.007416,-0.000595
0.183105,0.159897,-0.533203,0.012589,-0.000412
0.059509,0.087616,0.016159,0.007141,-0.004166
-0.146988,0.017944,0.449799,0.005264,-0.004028
-0.323364,-0.015610,0.508484,0.013229,-0.000641
-0.391113,-0.042526,0.570694,0.013870,-0.002609
-0.335037,-0.034561,0.489578,-0.013229,-0.000504
-0.266968,-0.050400,0.200867,-0.020920,0.005951
-0.172623,-0.101303,0.116043,-0.016251,0.009979
-0.015152,-0.071777,-0.089996,-0.011444,0.004257
0.151794,0.003387,-0.224167,-0.016388,0.003250
0.253418,0.126297,-0.090454,-0.012589,-0.001923
0.249115,0.194275,0.321854,-0.001923,0.004944
0.211029,0.216934,0.486649,0.019638,0.007965
0.141541,0.159393,0.307892,0.013779,0.005127
0.008789,0.022339,-0.258362,0.016342,-0.002197
-0.087387,-0.111557,-0.472641,0.013870,-0.000046
-0.086655,-0.215332,-0.253006,0.003799,0.005768
-0.095673,-0.262573,0.065460,-0.002701,0.008652
-0.100708,-0.273010,0.218399,0.001877,0.008560
-0.120529,-0.249687,0.183517,0.005722,0.005219
-0.032043,-0.226364,0.061111,0.008652,-0.001282
0.109955,-0.144699,-0.067062,0.003983,-0.002609
0.238220,-0.068069,-0.025635,-0.007599,0.002060
0.350098,0.006821,0.104462,-0.015747,0.003708
0.381409,0.093933,-0.123962,-0.020004,0.004852
0.321465,0.163193,-0.431625,-0.018036,-0.000504
0.261520,0.186539,-0.559250,-0.014557,-0.003113
0.080017,0.170883,-0.343048,-0.021973,0.006226
-0.095947,0.176834,-0.079239,0.013458,0.008789
-0.143600,0.186722,0.079193,0.021240,0.003937
-0.090225,0.193497,0.238174,0.024628,-0.004440
-0.029297,0.195145,0.190750,0.009613,0.008469
-0.021973,0.186356,0.110184,0.006180,0.000320
-0.052689,0.171341,0.091141,0.010208,-0.000687
-0.157013,0.136551,0.095444,0.007736,0.007736
-0.278137,0.081894,0.119247,0.004990,0.001785
-0.349182,-0.018036,0.066193,0.007462,-0.002930
-0.377197,-0.112885,0.069580,-0.005539,-0.003342
-0.402328,-0.229042,0.109406,0.001099,-0.000641
-0.366051,-0.276043,-0.042801,0.015656,0.003479
-0.329773,-0.252508,-0.074844,0.012772,0.007645
-0.119019,-0.228973,0.127670,0.023483,0.009109
0.181641,-0.093430,0.292099,0.011765,0.006363
0.429016,0.010803,0.113892,-0.011810,-0.002197
0.580101,0.036438,-0.176880,-0.019135,0.009293
0.589382,-0.012177,-0.196930,-0.026276,0.011673
0.448133,-0.059006,0.006409,-0.009888,0.002563
0.306885,-0.098190,0.257217,-0.020187,0.005951
0.017853,-0.114578,0.139160,-0.021057,0.009064
-0.229248,-0.106247,-0.254333,-0.009521,0.006775
-0.394409,-0.075851,-0.308853,-0.007553,-0.001007
-0.430367,-0.043716,-0.099380,-0.011398,-0.000778
-0.372952,0.116730,-0.067383,-0.000092,0.004807
-0.315536,0.238174,-0.508118,-0.000137,0.005997
-0.185532,0.306702,-0.506218,0.015976,-0.005127
-0.086243,0.286011,-0.504318,0.015884,0.002060
0.013367,0.181000,0.083862,0.003525,0.008194
0.108032,0.075989,0.399902,0.003159,0.006180
0.153717,-0.125565,0.522766,0.009659,-0.000275
0.178802,-0.222977,0.560074,0.000183,-0.002609
0.234421,-0.207962,0.528214,0.012039,0.007050
0.262299,-0.145340,0.279144,0.007004,0.008194
0.253922,-0.044449,0.197067,-0.013275,0.011169
0.214050,0.027420,0.272186,-0.014328,-0.003159
0.199402,0.050858,0.169281,-0.007736,0.003250
0.181366,0.011673,-0.242065,-0.002197,0.006271
0.115173,-0.081482,-0.434212,0.002014,-0.005585
0.042801,-0.157013,-0.626358,0.029572,0.003571
-0.020508,-0.182602,-0.206680,0.012451,0.005539
-0.087570,-0.197113,0.067612,-0.008194,0.005997
-0.148132,-0.172119,0.192307,-0.008469,0.001053
-0.155731,-0.086655,0.322037,0.010300,-0.001190
-0.185989,-0.018036,0.487015,0.015884,-0.001465
-0.217896,0.036026,0.552429,0.021469,0.005905
-0.242111,0.049576,0.444946,-0.001190,0.010666
-0.246964,0.062027,0.221512,-0.019592,0.004074
-0.173218,0.051956,-0.090958,-0.018356,-0.001831
-0.055756,0.048569,-0.238678,0.001785,-0.000870
0.031174,0.054153,-0.344696,0.003021,0.009293
0.161682,0.053055,-0.258453,0.002426,0.005447
0.272095,0.028519,-0.160904,-0.004395,-0.003708
0.325287,-0.005127,-0.400955,-0.006409,-0.001328
0.369644,0.002289,-0.521187,-0.018311,0.006958
0.304138,0.044540,-0.641418,0.004074,0.008194
0.094070,0.075256,-0.078278,0.008514,0.007690
-0.174316,0.066010,0.194595,0.024994,-0.002747
-0.397110,0.070175,0.102768,-0.006180,-0.002609
-0.474655,0.072784,-0.045868,-0.026596,0.005264
-0.454491,0.062485,0.130554,-0.017120,0.007233
-0.323421,0.057449,0.376099,-0.004990,0.000275
-0.192352,0.050537,0.482437,0.000595,-0.002197
0.063721,-0.004898,0.297638,-0.003662,0.000000
0.233734,-0.028702,-0.037216,-0.005997,0.003250
0.262619,-0.044449,-0.317505,-0.001465,0.003754
0.303772,-0.033096,-0.154083,0.007187,0.007416
0.296539,0.044174,0.208740,0.010483,0.010757
0.292648,0.114395,0.191666,0.014740,0.005814
0.249619,0.098511,-0.164932,0.001328,-0.001007
0.190430,0.030853,-0.258957,0.004578,-0.000229
0.148956,-0.036896,0.240509,-0.004440,0.003662
0.091919,-0.093658,0.592049,-0.011902,0.004807
-0.005676,-0.092651,0.787434,0.009888,0.008331
-0.165527,-0.029480,0.675058,0.010529,0.008469
-0.287476,0.012955,0.562683,0.015747,0.006775
-0.319153,-0.026047,-0.291458,0.011536,0.008881
-0.336685,-0.107437,-0.817841,0.002197,0.009064
-0.287659,-0.115906,-0.959152,0.002289,0.007278
-0.148315,-0.058548,-1.010605,-0.011856,0.007462
0.071228,0.020782,-0.750732,-0.023117,0.010162
0.267471,0.103455,-0.490860,-0.018677,0.006592
0.357605,0.129456,0.128906,-0.017120,0.000320
0.342178,0.081161,0.396286,-0.012268,-0.000458
0.263489,0.015701,0.395279,-0.000275,-0.003204
0.111694,-0.066513,0.231079,0.008652,0.004257
-0.055435,-0.182785,0.155731,0.005173,0.004074
-0.110092,-0.218033,0.339294,0.005859,0.004807
-0.108398,-0.224899,0.601410,0.003525,0.006271
-0.174042,-0.136826,0.585068,0.005814,0.010254
-0.293701,-0.010208,0.444214,0.001099,0.007095
-0.369278,0.130554,0.048523,-0.004578,0.007004
-0.355728,0.157379,-0.337509,-0.006729,0.009521
-0.247147,0.178802,-0.162277,0.003891,0.000916
-0.017578,0.067886,-0.080383,0.023712,0.001694
0.262665,-0.028198,-0.284637,0.018311,0.002747
0.390083,-0.063629,-0.320114,0.013779,0.002609
0.361942,-0.114532,0.017212,0.008972,0.004349
0.333801,-0.130966,0.419586,-0.003937,0.003616
0.111328,-0.116867,0.473190,-0.011948,0.006134
-0.095352,-0.075485,0.291870,-0.018356,0.009064
-0.190201,-0.029755,0.144791,-0.011581,0.007050
-0.253784,-0.015244,0.090408,-0.003342,0.008423
-0.259552,0.034195,0.063766,-0.002014,0.009613
-0.236984,0.090179,-0.228607,0.011673,0.007004
-0.199585,0.204712,-0.640961,0.004669,0.007874
-0.171936,0.247192,-0.845421,-0.008743,0.008148
-0.084229,0.197914,-0.815197,-0.016525,0.007919
0.043396,0.148636,-0.559393,0.017166,0.009705
0.183655,-0.038773,-0.303589,0.004761,0.001648
0.378983,-0.176376,0.147171,0.002930,-0.000870
0.442543,-0.233643,0.418213,0.011673,-0.002930
0.426533,-0.223022,0.583099,0.026688,0.002380
0.355791,-0.192215,0.572342,0.028152,0.002060
0.285049,-0.155228,0.470810,0.019272,0.004990
0.161865,-0.075577,0.404297,-0.002609,0.005814
0.040375,0.084824,0.497131,0.002884,0.004257
-0.090637,0.208099,0.624298,0.011765,0.001602
-0.204758,0.191895,0.450989,0.000320,-0.002243
-0.326294,0.087296,0.174820,0.011490,-0.003571
-0.341309,-0.056992,0.034973,0.022247,0.002975
-0.296219,-0.163788,-0.053970,0.014420,-0.001511
-0.301163,-0.195511,-0.179718,0.023300,0.001648
-0.268433,-0.201553,-0.352341,0.011810,-0.003479
-0.203705,-0.148727,-0.430389,0.000320,-0.002838
-0.162918,-0.085464,-0.496857,-0.019089,0.003754
-0.117279,0.016159,-0.244354,-0.024765,0.007324
-0.035110,0.125931,-0.011856,-0.031448,0.009521
0.042343,0.168777,0.231583,-0.018013,0.011261
0.044769,0.131104,0.424805,-0.004578,0.007828
0.002289,0.081436,0.179031,-0.004028,0.008240
-0.087982,0.013596,-0.343277,-0.018265,0.007736
-0.222107,-0.031906,-0.546867,-0.018471,0.009888
-0.280151,-0.047470,-0.373363,-0.018677,0.008743
-0.212357,-0.056534,-0.199860,-0.008286,0.009750
-0.120026,-0.046555,0.111969,0.002563,0.006180
0.051453,-0.013184,0.346710,0.004532,0.008469
0.225586,0.007965,0.466141,-0.001602,0.006226
0.353256,0.038956,0.279053,-0.010666,0.005081
0.359482,0.062622,-0.119980,-0.007874,0.004852
0.300247,0.092514,-0.086563,-0.015472,0.008148
0.224350,0.127258,0.109909,0.000320,0.005814
0.126480,0.174362,0.091095,0.011810,0.003250
-0.002106,0.184479,0.016525,0.011902,0.005859
-0.002884,0.171753,-0.199310,0.014053,0.005905
0.050720,0.135040,-0.303497,0.016663,0.006912
0.125244,0.086105,-0.079742,0.023758,0.008057
0.186218,0.032593,0.220047,0.031586,0.009109
0.160492,-0.052963,0.494339,0.014420,0.008102
0.151978,-0.143234,0.454193,0.002930,0.005997
0.230484,-0.172806,0.160858,-0.003983,0.005630
0.282349,-0.167313,0.163101,-0.014236,0.002975
0.148315,-0.140900,0.379486,-0.020325,0.004852
-0.115036,-0.072510,0.480698,-0.020691,0.005951
-0.348633,0.015015,0.283447,-0.006454,0.009796
-0.460831,-0.014099,-0.435150,-0.005585,0.006042
-0.466988,-0.107986,-0.715530,0.010666,-0.002197
-0.385426,-0.213455,-0.637527,0.015518,-0.001190
-0.303864,-0.220047,-0.559525,0.026138,-0.005859
-0.071228,-0.226639,-0.318695,0.026733,-0.003662
0.212402,-0.068802,-0.389969,0.003067,-0.000732
0.328857,0.063080,-0.365799,0.007370,-0.000549
0.345154,0.156143,-0.141037,0.023117,-0.001419
0.361450,0.153076,0.150101,0.020828,-0.001144
0.189789,0.078323,0.384293,0.005219,-0.001831
0.027557,-0.024216,0.511322,0.004715,0.002335
-0.127441,-0.084915,0.537827,0.002884,-0.000183
-0.266006,-0.105148,0.634323,-0.003708,-0.003204
-0.319702,-0.092194,0.622948,-0.016846,0.005173
-0.225357,-0.036072,0.611572,-0.018036,-0.002106
-0.085236,0.063995,0.375000,-0.017807,-0.006500
0.071777,0.160400,0.179169,-0.012543,0.000320
0.315125,0.230392,0.012772,-0.005310,0.002930
0.344582,0.210571,-0.056900,-0.008514,0.003616
0.374039,0.099701,-0.090775,-0.003342,0.004349
0.153442,-0.061249,-0.335449,-0.010117,-0.000870
-0.064728,-0.174591,-0.526794,-0.005447,-0.001968
-0.243530,-0.173126,-0.385895,0.001511,-0.002197
-0.398117,-0.105331,-0.362320,0.010437,0.005951
-0.370239,-0.027008,-0.471359,0.025635,0.009293
-0.342361,0.099152,-0.503220,0.007416,0.009109
-0.216431,0.172989,-0.416199,0.004257,0.005859
-0.108124,0.199860,-0.023209,0.007553,0.008011
0.025497,0.178162,0.412399,0.016800,0.004715
0.197754,0.130783,0.497955,0.023438,0.008652
0.241562,0.051178,0.336319,0.016983,0.009613
0.164795,-0.044815,0.085556,0.000320,0.010483
0.041199,-0.061478,0.165115,-0.014374,0.005493
-0.084503,-0.020050,0.509766,-0.022842,0.004028
-0.149551,0.031036,0.441193,-0.013458,-0.001236
-0.147354,-0.011719,-0.107437,-0.004074,-0.000641
-0.074844,-0.114624,-0.530273,0.009521,-0.001099
0.126205,-0.178665,-0.518555,0.005219,0.007233
0.291504,-0.199722,-0.215149,0.009521,0.006821
0.350189,-0.134445,-0.072189,0.004578,0.012405
0.345062,-0.041611,-0.093430,0.013687,0.008560
0.325745,-0.051498,-0.017029,0.011856,0.001190
0.165253,-0.133942,0.336868,0.005676,-0.002930
-0.019958,-0.187592,0.541351,-0.002289,0.006866
-0.168274,-0.118011,0.592621,-0.025681,0.011215
-0.293701,-0.050079,0.522720,-0.024490,0.009796
-0.347488,0.011948,0.413177,0.027466,0.008560
-0.401276,0.102722,-0.131470,0.024353,0.010620
-0.355865,0.170380,-0.755997,0.021240,0.008789
-0.210709,0.235291,-0.989456,-0.003021,0.004761
-0.007690,0.248245,-0.648994,-0.010391,0.005127
0.165848,0.208145,-0.308533,-0.010620,0.000092
0.242889,0.168045,0.289307,-0.003845,0.000046
0.234375,0.093292,0.377197,-0.012543,-0.005356
0.228882,0.028519,0.176468,-0.015976,0.003067
0.189651,-0.043945,0.069260,-0.015793,0.008377
0.077133,-0.097916,0.184891,-0.019592,0.008469
-0.035522,-0.156235,0.480698,-0.018311,0.004578
-0.151932,-0.242386,0.612259,-0.032181,-0.006317
-0.199860,-0.262115,0.507843,-0.031998,0.002884
-0.163971,-0.213409,0.520615,-0.023575,0.007828
-0.059738,-0.164703,0.369186,0.000870,0.003708
0.021698,-0.081436,0.000916,0.021011,-0.002106
0.104736,-0.017395,-0.295166,0.022247,-0.003433
0.140717,0.076767,-0.206589,0.019272,-0.001511
0.199677,0.179947,-0.161774,0.009109,0.001099
0.229248,0.264702,-0.114487,-0.000641,0.005814
0.194641,0.281994,0.005219,0.000320,0.008331
0.125427,0.203527,-0.140305,0.014969,0.005951
-0.021057,0.125061,-0.672890,0.012451,0.004990
-0.169739,-0.075165,-0.732777,0.008286,0.000320
-0.274200,-0.216660,-0.387629,-0.011169,-0.002289
-0.381226,-0.227715,-0.042480,-0.004944,-0.003159
-0.397110,-0.238770,0.280884,-0.015198,-0.003891
-0.357880,-0.145844,0.469894,-0.011307,-0.000275
-0.267838,-0.034882,0.533524,0.004166,0.004990
-0.158844,0.051727,0.463623,0.000046,0.005585
-0.057404,0.123138,0.565018,0.017029,0.003250
0.041107,0.181000,0.594360,0.019272,0.006866
0.208740,0.179214,0.693192,0.021515,0.008789
0.351654,0.133850,0.647049,-0.002518,0.000320
0.323593,0.050995,0.600906,-0.005585,0.000229
0.220322,-0.012634,-0.171616,-0.006500,-0.002655
0.178345,-0.090179,-0.782936,0.002197,0.000732
0.173676,-0.101120,-0.814991,0.011765,-0.001740
0.128632,-0.117599,-0.453501,0.001144,0.002975
0.166534,-0.156189,-0.092010,-0.002197,0.006134
0.222519,-0.210022,0.371750,-0.002289,0.006500
0.187729,-0.198395,0.277451,-0.000641,0.008881
0.068573,-0.145660,0.437393,-0.007095,0.011673
-0.063538,-0.085510,0.384888,-0.016251,0.001328
-0.179581,0.014648,-0.210938,-0.022659,0.000549
-0.272827,0.171570,-0.671310,-0.011169,0.004395
-0.268799,0.267242,-0.627296,0.000320,0.007004
-0.211304,0.280472,-0.583282,0.006775,0.007187
-0.207458,0.194618,0.002655,0.013550,0.001328
-0.192032,0.108765,0.433319,0.023529,-0.001419
-0.077591,-0.082306,0.726059,0.025681,-0.001648
0.030853,-0.192444,0.821938,0.027832,-0.000687
0.115356,-0.160309,0.825016,0.006134,-0.002975
0.161407,-0.030670,0.761805,0.011032,-0.001923
0.173859,0.096268,0.381452,0.005264,-0.004074
0.196747,0.112793,0.001099,0.000183,-0.001831
0.203796,0.079376,-0.721390,0.004349,0.005127
0.206085,-0.036301,-0.996391,0.001694,0.004486
0.206818,-0.165894,-0.767681,0.011398,0.004761
0.181091,-0.300636,-0.538971,0.001328,0.002335
0.148682,-0.373615,0.117508,0.005219,0.004761
0.122543,-0.344164,0.532013,0.004807,0.002197
0.067245,-0.228616,0.603081,-0.012039,0.003250
-0.001831,-0.113068,0.686268,-0.022202,0.007324
-0.062256,0.119019,0.682611,0.000320,0.006180
-0.170288,0.208397,0.503125,-0.005539,0.005310
-0.252136,0.230587,0.323639,-0.020599,0.005997
-0.347168,0.216986,0.178802,-0.024353,0.008194
-0.376785,0.203384,0.165802,-0.026642,0.009064
-0.405602,0.160858,-0.155136,-0.004395,0.008560
-0.374737,0.044586,-0.552635,-0.002289,0.005493
-0.343872,-0.109406,-0.593914,0.016479,-0.002930
-0.199310,-0.231766,-0.635193,-0.001144,-0.003571
-0.044632,-0.229500,-0.434875,-0.005997,-0.001419
0.130692,-0.227234,-0.260010,0.008148,-0.006317
0.263306,-0.081528,-0.106384,0.013687,-0.005219
0.275391,0.127258,0.017899,0.033325,-0.002838
0.223755,0.213203,0.229935,0.024857,0.006134
0.197571,0.248302,0.369415,0.007050,0.009109
0.197800,0.242369,0.496216,0.000870,0.009888
0.140625,0.236435,0.609283,0.011581,0.005951
0.072876,0.199814,0.461060,0.023254,0.006454
0.029480,0.158249,-0.027008,0.020187,0.006363
-0.010391,0.086929,-0.277176,0.016068,0.004349
-0.055618,-0.069214,-0.233505,-0.004990,0.006454
-0.036758,-0.224808,0.003799,-0.002655,0.007690
-0.016708,-0.263283,0.180817,-0.004120,0.009796
-0.000595,-0.249172,0.231125,-0.016479,0.003250
0.063629,-0.235062,-0.052643,-0.029709,-0.002060
0.143875,-0.103867,-0.333527,-0.031998,0.003067
0.174866,0.042389,-0.323776,-0.023552,0.008469
0.110596,0.146896,0.010254,-0.015106,0.009613
0.013046,0.170013,0.189285,-0.005081,0.007553
-0.014191,0.166351,0.151566,0.020828,0.008560
-0.007507,0.094849,0.044220,0.019592,-0.001373
-0.045227,-0.026047,-0.146164,-0.001328,0.001236
-0.105652,-0.139709,0.011673,-0.015244,0.009064
-0.199402,-0.170837,-0.040512,-0.009338,0.004257
-0.272232,-0.173401,-0.229111,0.008972,-0.003799
-0.306061,-0.141815,-0.256577,0.015701,0.005264
-0.279099,-0.113937,-0.336777,0.022430,0.007553
-0.104462,-0.052643,-0.429474,-0.011581,-0.000137
0.120529,0.019775,-0.346939,-0.024765,0.012085
0.285049,0.088120,-0.079834,-0.010712,0.008331
0.457832,0.093567,0.236801,0.020874,0.008560
0.550564,0.080383,0.496674,0.031036,0.001465
0.538290,0.065323,0.481796,0.013824,-0.004074
0.424602,0.059921,0.395645,0.002014,0.003525
0.310913,0.073380,0.481796,0.000320,0.008286
0.038681,0.125061,0.201508,0.014648,0.002289
-0.190887,0.156921,-0.088165,0.005127,-0.000595
-0.316864,0.134628,0.101212,0.003250,0.006134
-0.396538,0.114304,0.297867,-0.007095,0.007690
-0.464458,0.059235,-0.047516,-0.013550,0.004349
-0.519156,-0.076904,-0.509583,-0.018539,-0.000549
-0.534030,-0.160629,-0.520844,-0.010300,-0.004807
-0.489351,-0.179947,-0.337280,-0.004074,0.005264
-0.407410,-0.062759,-0.171204,-0.016891,0.007553
-0.325470,0.075577,-0.037262,-0.004028,-0.005630
-0.189835,0.113525,-0.024490,0.017899,-0.001328
-0.017487,0.011078,-0.274475,0.005951,0.009430
0.215195,-0.096451,-0.396194,0.010849,0.007828
0.369598,-0.162094,-0.087845,-0.001923,-0.001602
0.417389,-0.139206,0.110962,-0.005859,0.005447
0.370628,-0.029434,0.140945,-0.011856,0.007462
0.323868,0.050308,0.213409,-0.023804,-0.000320
0.155457,0.080521,0.282486,-0.026047,0.010300
-0.052002,0.023529,0.400452,-0.008698,0.003754
-0.242981,-0.040970,0.301529,0.025314,0.005219
-0.332703,-0.074066,0.247467,0.031471,0.003067
-0.392166,-0.112198,0.247238,0.027065,0.004852
-0.354767,-0.139801,0.166580,0.022659,0.007874
-0.232361,-0.125107,-0.020554,0.016434,0.006180
-0.044449,-0.120117,-0.259094,0.009109,0.007919
0.206818,-0.076309,-0.459641,-0.004303,0.002609
0.355614,-0.065094,-0.336914,-0.005035,-0.004669
0.422939,-0.073883,-0.005127,-0.006775,-0.003845
0.429411,-0.047516,0.266785,-0.024216,-0.002197
0.366866,0.042664,0.346664,-0.018219,0.000870
0.304321,0.131927,0.130463,-0.015930,-0.000778
0.192078,0.199356,-0.130783,0.005585,-0.003433
0.116547,0.225311,-0.434280,0.004074,-0.004669
0.032684,0.201920,-0.405991,0.001877,-0.004623
-0.030350,0.190430,-0.185898,-0.023438,0.001465
-0.080154,0.211258,-0.056625,-0.016708,-0.001236
-0.084274,0.212906,-0.034195,0.007278,-0.001511
-0.062073,0.137924,0.094574,0.015884,-0.001740
-0.026917,-0.012497,0.246368,0.025200,-0.003571
-0.063812,-0.201279,0.253464,0.021549,-0.002792
-0.150879,-0.264977,0.075714,0.017899,-0.000687
-0.201736,-0.254391,-0.019913,-0.011169,-0.005127
-0.166763,-0.243805,0.018173,-0.028976,0.002518
-0.102264,-0.118332,0.039780,-0.000504,0.003616
-0.160767,-0.080795,0.121719,0.000320,0.004578
-0.244766,-0.064407,0.267426,0.016754,0.009476
-0.357605,-0.054611,0.361908,0.028313,0.011948
-0.393585,-0.062622,0.330780,0.022923,0.004257
-0.385895,-0.040878,0.336182,0.017532,-0.001602
-0.346115,0.001511,0.092880,-0.004669,0.004349
-0.248520,0.038269,-0.538101,-0.023438,-0.003571
-0.068481,0.105331,-0.514503,-0.040009,0.002243
0.104095,0.249458,-0.490906,-0.033325,0.012314
0.256531,0.374233,-0.055298,-0.026642,0.010437
0.387268,0.402082,0.179214,-0.010391,0.004120
0.402969,0.324088,0.361496,0.003754,0.003250
0.340782,0.153209,0.097092,0.020233,-0.003754
0.278595,-0.017670,-0.253784,0.025314,-0.002930
0.192627,-0.257790,-0.339020,0.015060,0.002975
0.130371,-0.393391,-0.290634,-0.004074,0.002060
0.040558,-0.391542,-0.205856,0.004257,0.005173
0.054428,-0.312799,-0.242844,-0.008469,0.007828
0.085098,-0.234055,-0.039871,-0.009705,0.007553
0.038086,-0.152344,0.476257,-0.024307,0.004944
-0.013916,-0.040009,0.529999,-0.032890,0.007416
-0.067932,0.128448,0.583740,-0.029194,0.010071
-0.102081,0.240166,0.197021,-0.025497,0.007507
-0.099289,0.281147,-0.007507,0.001694,0.009109
