# OpenSignals Text File Format
# {"00:07:80:3B:46:63": {"sensor": ["EMG", "EMG", "EMG", "EMG", "EMG"], "device name": "00:07:80:3B:46:63", "column": ["nSeq", "DI", "CH1", "CH2", "CH3", "CH4", "CH5"], "sync interval": 2, "time": "8:51:27.987", "comments": "", "device connection": "BTH00:07:80:3B:46:63", "channels": [1, 2, 3, 4, 5], "date": "2017-4-28", "mode": 0, "digital IO": [0, 1], "firmware version": 770, "device": "biosignalsplux", "position": 0, "sampling rate": 1000, "label": ["CH1", "CH2", "CH3", "CH4", "CH5"], "resolution": [16, 16, 16, 16, 16], "special": [{}, {}, {}, {}, {}]}}
# EndOfHeader
0	0	32791	32859	32735	32757	33039	
1	0	32816	32748	32549	32768	32871	
2	0	32734	32899	32822	32890	32577	
3	0	32825	32815	32818	32800	32611	
4	0	32751	32559	32711	32662	32635	
5	0	32773	32711	32805	32775	32927	
6	0	32794	32711	32813	32767	33223	
7	0	32774	32903	32799	32795	33133	
8	0	32835	32754	32753	32863	32949	
9	0	32849	33023	32619	32775	32967	
10	0	32903	32898	32735	32647	32907	
11	0	32860	32750	32795	32653	32821	
12	0	32805	32451	32640	32651	32631	
13	0	32701	32263	32755	32805	32507	
14	0	32649	31899	32719	32762	32762	
15	0	32614	31707	32507	32711	33334	
16	0	32664	32007	32745	32748	33583	
17	0	32669	32512	32697	32591	33095	
18	0	32802	32835	32685	32503	32693	
19	0	32839	32923	32707	32723	32485	
20	0	32868	33025	32818	32871	32566	
21	0	32900	32703	32623	33039	31815	
22	0	32894	32815	32775	32977	31991	
23	0	32822	32887	32767	32959	32399	
24	0	32928	32975	32701	32802	32027	
25	0	32849	33095	32748	32703	32287	
26	0	32625	32898	32681	32791	32928	
27	0	32728	32871	32790	32771	33023	
28	0	32686	32956	32815	32685	33265	
29	0	32763	33035	32609	32671	33231	
30	0	32824	33095	32775	32735	33091	
31	0	32844	32951	32765	33043	33639	
32	0	32839	32967	32593	32883	33366	
33	0	32979	32775	32711	32790	33076	
34	0	32889	32495	32687	32871	32386	
35	0	32775	32082	32805	32862	32312	
36	0	32717	31275	32774	32839	32235	
37	0	32761	30707	32865	32613	33081	
38	0	32853	30553	32767	32639	33344	
39	0	32759	31015	32816	32511	33487	
40	0	32696	32025	32791	32564	32775	
41	0	32720	32711	32815	32455	33084	
42	0	32775	32953	32767	32659	33123	
43	0	32775	33223	32827	32926	33143	
44	0	32750	33471	32809	33259	32853	
45	0	32676	33569	32735	33129	32821	
46	0	32717	33254	32775	33009	32415	
47	0	32827	33287	32739	32850	32876	
48	0	32831	33755	32744	32797	32861	
49	0	32775	34355	32684	32775	33067	
50	0	32713	34550	32742	32927	32843	
51	0	32725	33879	32667	32999	32939	
52	0	32753	32491	32793	33114	32999	
53	0	32761	31143	32683	32912	33025	
54	0	32846	30522	32904	32557	32943	
55	0	32790	30623	32839	32515	32907	
56	0	32737	31751	32775	32398	33232	
57	0	32775	32611	32850	32406	33370	
58	0	32820	32789	32788	32431	33814	
59	0	32838	32805	32727	32630	33851	
60	0	32775	32773	32607	32890	33123	
61	0	32775	32835	32741	33159	31937	
62	0	32747	32951	32671	33287	31846	
63	0	32681	33159	32818	33179	31949	
64	0	32676	33375	32787	32603	31529	
65	0	32710	33511	32770	32141	31301	
66	0	32801	33328	32823	31999	31512	
67	0	32756	33193	32733	32071	32759	
68	0	32831	33081	32770	32698	32967	
69	0	32767	32594	32647	33280	32963	
70	0	32704	32425	32799	34247	33442	
71	0	32784	32189	32803	34183	33630	
72	0	32899	31979	32627	33202	33763	
73	0	32885	32186	32743	32479	32947	
74	0	32848	32395	32791	32301	32945	
75	0	32699	32743	32704	32247	32451	
76	0	32635	32689	32745	32419	32549	
77	0	32694	32685	32620	32482	32480	
78	0	32720	32910	32805	32791	32903	
79	0	32660	32817	32787	33083	33089	
80	0	32609	32919	32553	33041	33387	
81	0	32800	32735	32680	33191	33377	
82	0	32882	32699	32709	33031	33141	
83	0	32848	32921	32809	32557	32550	
84	0	32793	32595	32792	32475	32135	
85	0	32839	32449	32623	32515	32261	
86	0	32706	32347	32827	32436	32775	
87	0	32713	32279	32751	32723	33369	
88	0	32843	32483	32687	32587	33149	
89	0	32960	32439	32651	32449	33069	
90	0	32860	32691	32582	32583	33261	
91	0	32743	32822	32727	32517	32897	
92	0	32710	32775	32715	32829	32163	
93	0	32682	32642	32691	32747	32093	
94	0	32761	32845	32737	32582	32743	
95	0	32775	32997	32647	32644	33307	
96	0	32765	33139	32745	32773	33494	
97	0	32775	33235	32751	33043	33461	
98	0	32775	32755	32675	33134	32743	
99	0	32775	32210	32765	33053	32839	
100	0	32812	31907	32812	32899	32567	
101	0	32861	31779	32698	32663	32407	
102	0	32739	32049	32739	32514	32723	
103	0	32642	32237	32659	33018	32763	
104	0	32592	32445	32829	33383	32839	
105	0	32920	32415	32765	33325	33299	
106	0	33008	32327	32665	33107	33279	
107	0	32943	32635	32722	33049	33121	
108	0	32784	32881	32640	32977	33327	
109	0	32687	33375	32787	32678	33433	
110	0	32685	33443	32719	32549	33485	
111	0	32672	33597	32653	32409	33303	
112	0	32699	33105	32771	32263	33435	
113	0	32746	33028	32705	32371	33571	
114	0	32728	32589	32652	32592	32311	
115	0	32827	32495	32637	32527	31175	
116	0	32870	32661	32743	32737	31446	
117	0	32930	33037	32741	32823	31802	
118	0	32931	32903	32711	32924	31574	
119	0	32912	32519	32672	32873	31910	
120	0	32936	31605	32745	32766	32175	
121	0	32861	30995	32763	32699	32816	
122	0	32794	31151	32711	32901	33202	
123	0	32813	31990	32735	33432	33607	
124	0	32853	32947	32731	33514	33458	
125	0	32775	33543	32775	32987	33461	
126	0	32775	33415	32575	32723	33401	
127	0	32800	33223	32720	32723	33455	
128	0	32770	32751	32741	32492	33331	
129	0	32805	32499	32530	32142	32938	
130	0	32727	32339	32775	31943	32647	
131	0	32632	32531	32751	32634	32557	
132	0	32768	32643	32599	32860	32944	
133	0	32747	32935	32831	32911	32967	
134	0	32799	33195	32833	33121	32711	
135	0	32817	33613	32820	33250	32603	
136	0	32773	33415	32815	33085	32705	
137	0	32681	33063	32691	32541	32763	
138	0	32752	32363	32847	32263	32985	
139	0	32736	32029	32703	32317	32903	
140	0	32787	31771	32695	32581	32723	
141	0	32775	31789	32793	32999	33010	
142	0	32803	31937	32657	33705	32800	
143	0	32843	32099	32621	34593	32963	
144	0	32868	32563	32795	33787	33126	
145	0	32862	32647	32717	32391	32681	
146	0	32833	33039	32623	31655	33287	
147	0	32725	33133	32821	31851	33101	
148	0	32676	33498	32699	32417	32949	
149	0	32667	33329	32637	32609	33317	
150	0	32713	33011	32647	32631	33142	
151	0	32888	32728	32679	32745	32799	
152	0	32889	32257	32619	32793	32391	
153	0	32885	32263	32626	32507	31857	
154	0	32805	32195	32755	32263	31773	
155	0	32803	32519	32748	32459	31942	
156	0	32801	32775	32575	32663	32168	
157	0	32769	33371	32735	32741	32732	
158	0	32738	33395	32701	32927	32758	
159	0	32647	32919	32775	33004	32824	
160	0	32740	32514	32541	33143	33223	
161	0	32967	32122	32759	33233	33335	
162	0	32826	32115	32791	33030	33139	
163	0	32720	32031	32651	32551	33455	
164	0	32608	32575	32698	32223	33117	
165	0	32647	32549	32592	32756	33114	
166	0	32761	32893	32803	33229	33035	
167	0	32857	32855	32735	33275	32720	
168	0	32850	32759	32671	33251	32723	
169	0	32923	32733	32743	32963	33159	
170	0	32775	32583	32722	32735	33253	
171	0	32809	32557	32770	32867	32775	
172	0	32860	32545	32717	32771	32647	
173	0	32871	32371	32735	32646	32742	
174	0	32841	32434	32793	32669	32531	
175	0	32760	32399	32575	32595	32710	
176	0	32760	32519	32775	32725	32559	
177	0	32836	32923	32709	32749	32711	
178	0	32768	33206	32678	32664	32759	
179	0	32751	33061	32647	32559	32886	
180	0	32775	32711	32801	32743	33211	
181	0	32657	32618	32813	32855	33101	
182	0	32682	32615	32627	32833	33119	
183	0	32743	32727	32753	32704	33199	
184	0	32736	32641	32706	32590	33341	
185	0	32622	32871	32711	32571	32948	
186	0	32717	32927	32726	32805	32821	
187	0	32740	32967	32743	32911	33305	
188	0	32896	32859	32765	33001	33371	
189	0	32967	33157	32691	33270	32907	
190	0	32836	33145	32647	33127	32299	
191	0	32847	32871	32611	32793	31917	
192	0	32783	32519	32703	32801	31785	
193	0	32743	31809	32675	32745	31919	
194	0	32800	31185	32653	32587	32237	
195	0	32850	30887	32673	32483	32885	
196	0	32902	31695	32683	32225	33419	
197	0	32821	32502	32639	32325	33627	
198	0	32804	33137	32775	32413	33757	
199	0	32892	33130	32691	32391	33479	
200	0	32892	33042	32775	32501	32775	
201	0	32797	33053	32768	32797	32283	
202	0	32749	33171	32675	33156	32101	
203	0	32775	33129	32725	33895	33087	
204	0	32749	33390	32643	33991	33459	
205	0	32762	33241	32819	33405	33605	
206	0	32753	33287	32828	32596	32917	
207	0	32760	33346	32691	32179	32083	
208	0	32742	33021	32726	32381	31901	
209	0	32725	32877	32647	33257	32503	
210	0	32774	32583	32757	33117	32575	
211	0	32802	32034	32765	32787	32825	
212	0	32875	31533	32662	32703	32691	
213	0	32959	31150	32738	32931	33287	
214	0	33001	31431	32654	32743	32775	
215	0	32870	32119	32685	32551	32807	
216	0	32813	32687	32649	32391	33363	
217	0	32774	33029	32727	32391	33516	
218	0	32775	33179	32715	32421	33287	
219	0	32856	32931	32555	32439	32607	
220	0	32738	32805	32787	32387	32683	
221	0	32653	32875	32807	32471	32513	
222	0	32677	32654	32609	32775	32797	
223	0	32667	32535	32801	32987	33068	
224	0	32667	32477	32775	33399	33191	
225	0	32686	32831	32598	33485	33116	
226	0	32756	32955	32669	33397	32851	
227	0	32845	32815	32741	33327	32679	
228	0	32775	33134	32759	32847	32977	
229	0	32805	33045	32711	32679	32769	
230	0	32761	33181	32599	32661	32615	
231	0	32757	33526	32775	32771	32911	
232	0	32799	33583	32731	32863	32807	
233	0	32831	33513	32751	32685	33010	
234	0	32802	33121	32729	32373	32643	
235	0	32812	32198	32597	32231	33370	
236	0	32825	31459	32743	32239	32894	
237	0	32861	30995	32861	32598	32133	
238	0	32711	30859	32719	32862	32818	
239	0	32688	31413	32687	32907	32938	
240	0	32561	32175	32703	32855	33193	
241	0	32526	32435	32747	32757	33287	
242	0	32715	32694	32699	33001	33285	
243	0	32909	32813	32615	33743	33125	
244	0	32891	32801	32817	33458	32861	
245	0	32825	33069	32771	32905	32571	
246	0	32793	32989	32592	32523	32309	
247	0	32813	33366	32829	32589	32199	
248	0	32822	33312	32703	32676	32425	
249	0	32795	33251	32561	32803	32896	
250	0	32908	32983	32775	32591	33311	
251	0	32913	32519	32743	32740	33399	
252	0	32775	32407	32733	32891	32911	
253	0	32730	32150	32746	33179	32137	
254	0	32713	32263	32673	33127	32496	
255	0	32660	32283	32685	32735	32755	
256	0	32673	32533	32656	32297	32479	
257	0	32850	32775	32643	32231	32427	
258	0	32876	33119	32671	32263	32047	
259	0	32781	33498	32742	32667	32423	
260	0	32770	33437	32684	33105	32611	
261	0	32769	33187	32839	33305	33095	
262	0	32662	32511	32802	33223	33397	
263	0	32718	31913	32571	33235	33415	
264	0	32733	32086	32797	32875	33383	
265	0	32728	32417	32770	32617	33017	
266	0	32756	32962	32692	32443	32985	
267	0	32676	32825	32735	32602	33223	
268	0	32754	32543	32633	32775	33025	
269	0	32853	32559	32815	32699	32573	
270	0	32840	32674	32762	32486	32743	
271	0	32770	32951	32615	32578	32927	
272	0	32775	33101	32793	32697	32851	
273	0	32837	32811	32773	32719	32983	
274	0	32854	32469	32660	32743	32775	
275	0	32837	32023	32807	32534	33013	
276	0	32830	32039	32775	32602	32903	
277	0	32818	32170	32616	32805	32635	
278	0	32884	32487	32801	32993	32933	
279	0	32871	32626	32747	32882	32813	
280	0	32786	32948	32563	32711	32742	
281	0	32846	32837	32681	32647	32525	
282	0	32834	32887	32744	32543	33026	
283	0	32746	32663	32647	32439	33229	
284	0	32752	32854	32775	32359	32641	
285	0	32738	32877	32638	32371	32664	
286	0	32741	32891	32677	32453	32403	
287	0	32824	32719	32697	32919	32307	
288	0	32824	33021	32775	33367	32891	
289	0	32683	32919	32669	33629	33147	
290	0	32640	32433	32734	33079	33173	
291	0	32737	32067	32786	33035	33663	
292	0	32839	31731	32759	32775	33403	
293	0	32869	31957	32733	33143	33044	
294	0	32827	32500	32674	33210	32931	
295	0	32756	32611	32837	33472	32540	
296	0	32702	32931	32805	33583	32341	
297	0	32656	32831	32613	33271	32109	
298	0	32702	33135	32736	32363	32612	
299	0	32760	33405	32787	31931	32815	
300	0	32807	33351	32666	31979	33159	
301	0	32822	33351	32711	32125	32855	
302	0	32775	33056	32819	32603	33397	
303	0	32680	32991	32647	33119	33743	
304	0	32820	32478	32733	33219	33223	
305	0	32859	32214	32767	33107	32587	
306	0	32924	31791	32623	32997	32241	
307	0	32915	32079	32727	32898	32027	
308	0	32868	32433	32681	32847	31712	
309	0	32856	32745	32689	32616	32089	
310	0	32740	32903	32735	32363	32610	
311	0	32825	32647	32601	32593	33089	
312	0	32741	32722	32799	32863	32967	
313	0	32651	32738	32768	32674	32997	
314	0	32736	33127	32665	32775	32966	
315	0	32732	33415	32731	32674	33093	
316	0	32692	32976	32598	32371	33339	
317	0	32755	32317	32711	32679	33744	
318	0	32833	31415	32639	32631	33207	
319	0	32886	30816	32749	32863	33671	
320	0	32867	31285	32775	33126	33430	
321	0	32869	32147	32643	33573	33270	
322	0	32864	32915	32740	33159	33071	
323	0	32813	33202	32578	32903	32598	
324	0	32743	33238	32725	32620	32367	
325	0	32760	33223	32717	32583	31879	
326	0	32784	33039	32547	32647	32003	
327	0	32744	32967	32750	32719	32805	
328	0	32720	32819	32796	32569	32731	
329	0	32770	32666	32647	32583	32425	
330	0	32656	32502	32747	32557	32537	
331	0	32728	32607	32767	32851	32047	
332	0	32753	32854	32741	32866	32497	
333	0	32730	32999	32730	32775	32691	
334	0	32770	32939	32711	32759	32985	
335	0	32809	32727	32749	32661	33171	
336	0	32767	32543	32725	32602	32941	
337	0	32735	32699	32533	32509	33177	
338	0	32813	32897	32745	32630	33343	
339	0	32892	32839	32827	32813	33195	
340	0	32880	32839	32775	32985	33131	
341	0	32884	32655	32770	33187	33287	
342	0	32817	32537	32638	33145	33127	
343	0	32811	32481	32760	32979	33623	
344	0	32775	32259	32699	32879	33607	
345	0	32729	32327	32565	32649	32967	
346	0	32693	32323	32692	32615	32653	
347	0	32775	32455	32839	32647	32711	
348	0	32768	32775	32733	32911	32396	
349	0	32758	33015	32747	32839	32127	
350	0	32691	33287	32575	32658	32199	
351	0	32679	33317	32771	32541	32502	
352	0	32690	33415	32743	32503	32567	
353	0	32772	33033	32630	32513	33257	
354	0	32775	32729	32757	32485	33611	
355	0	32724	32363	32741	32846	33095	
356	0	32754	32220	32579	33119	32567	
357	0	32818	32201	32790	33179	31903	
358	0	32875	32361	32656	33079	32210	
359	0	32717	32435	32647	33387	32642	
360	0	32664	32811	32661	32915	32743	
361	0	32697	32295	32705	32368	32879	
362	0	32692	32079	32738	32387	32655	
363	0	32743	31917	32729	32571	32701	
364	0	32797	31991	32813	33124	33063	
365	0	32748	32605	32775	33311	33047	
366	0	32829	32691	32639	33387	33283	
367	0	32828	32727	32897	32909	33113	
368	0	32837	32285	32812	32827	33287	
369	0	32805	32199	32613	32809	33142	
370	0	32736	32191	32861	32414	32851	
371	0	32800	32217	32818	32224	33339	
372	0	32763	32385	32650	32027	33131	
373	0	32753	32606	32763	32037	33123	
374	0	32698	33159	32647	31981	32967	
375	0	32832	33357	32723	31892	32731	
376	0	32775	33567	32711	32143	32967	
377	0	32765	33431	32767	32377	32925	
378	0	32711	33487	32749	33065	32682	
379	0	32784	33239	32671	34059	32579	
380	0	32786	33346	32735	34351	32992	
381	0	32774	33513	32799	34005	32907	
382	0	32871	34151	32598	33692	32730	
383	0	32775	34015	32747	33126	32733	
384	0	32725	33269	32743	32983	32399	
385	0	32884	31638	32615	33227	32263	
386	0	32902	30282	32643	32815	32277	
387	0	32907	29667	32583	32365	32643	
388	0	32896	30343	32805	32194	33286	
389	0	32809	31285	32727	32243	32775	
390	0	32763	32029	32647	32630	32435	
391	0	32727	32937	32775	32791	32690	
392	0	32813	33011	32727	32763	32607	
393	0	32902	33215	32583	32543	33155	
394	0	32898	33143	32774	32560	33240	
395	0	32761	33211	32775	32540	33161	
396	0	32720	33439	32643	32509	32665	
397	0	32833	33311	32875	32589	32869	
398	0	32797	33363	32811	32803	32818	
399	0	32648	33345	32704	32961	32578	
400	0	32636	33152	32759	33087	32952	
401	0	32677	33063	32711	32803	33287	
402	0	32770	33101	32519	32866	33332	
403	0	32775	32693	32745	32919	32957	
404	0	32824	32667	32754	32669	32775	
405	0	33016	32301	32637	32366	32617	
406	0	32917	32114	32775	32499	32619	
407	0	32762	32320	32721	32479	32987	
408	0	32766	32434	32770	32502	33702	
409	0	32733	32336	32611	32959	33607	
410	0	32827	32466	32667	33727	33643	
411	0	32868	32498	32731	33538	33263	
412	0	32775	32583	32775	32921	32863	
413	0	32762	32615	32632	32966	31915	
414	0	32792	32775	32709	32428	31175	
415	0	32808	32823	32831	32386	31751	
416	0	32736	32733	32775	32452	32701	
417	0	32805	32387	32621	32445	33182	
418	0	32800	32593	32571	32845	33530	
419	0	32787	32637	32615	33505	33255	
420	0	32746	32615	32717	33071	32725	
421	0	32752	32911	32711	32503	32717	
422	0	32763	33119	32775	32455	32647	
423	0	32759	33217	32717	32559	32463	
424	0	32710	33307	32542	32679	32993	
425	0	32774	33061	32687	32913	33451	
426	0	32704	32933	32717	32935	33223	
427	0	32659	32773	32723	32799	33107	
428	0	32676	32335	32813	32528	33055	
429	0	32626	32283	32720	32283	32775	
430	0	32700	32045	32611	32403	31871	
431	0	32837	32215	32767	32436	31289	
432	0	32817	32519	32756	32635	31485	
433	0	32766	32385	32737	32609	32706	
434	0	32813	32194	32827	32505	33186	
435	0	32766	31979	32643	32478	33023	
436	0	32809	32126	32583	32996	33448	
437	0	32804	32512	32721	32839	33897	
438	0	32868	32603	32728	32749	33913	
439	0	32898	32871	32711	33751	33677	
440	0	32905	32839	32655	34845	33374	
441	0	33067	32933	32540	34327	32651	
442	0	33058	33336	32711	33551	32493	
443	0	33030	33254	32677	32465	32263	
444	0	33117	33011	32659	31995	32307	
445	0	32972	32707	32723	32113	32689	
446	0	32995	32594	32587	32259	32891	
447	0	33081	32642	32557	32595	32809	
448	0	33133	32610	32655	32731	32829	
449	0	33102	32767	32640	32711	32975	
450	0	33082	32875	32699	32694	33040	
451	0	33012	32531	32541	32795	33045	
452	0	32975	32562	32687	32822	33170	
453	0	32941	32365	32738	32775	33306	
454	0	32944	32199	32733	32759	33158	
455	0	32911	32301	32706	32591	33125	
456	0	32952	32623	32551	32455	33135	
457	0	32847	32601	32723	32490	32993	
458	0	32775	32847	32699	32647	32973	
459	0	32662	32687	32755	32903	32205	
460	0	32440	32801	32837	33057	31344	
461	0	32304	32799	32633	33025	31347	
462	0	32262	33101	32685	33075	31965	
463	0	32278	33451	32795	32832	32673	
464	0	32258	33495	33015	31959	33233	
465	0	32167	33169	32946	31643	33438	
466	0	32152	32997	32913	31687	33383	
467	0	32263	32735	32959	32305	33055	
468	0	32273	32426	32899	33011	32960	
469	0	32306	31781	32775	33687	33378	
470	0	32317	31065	33037	33965	33410	
471	0	32440	31029	32931	34302	33070	
472	0	32436	31365	32982	34511	33063	
473	0	32552	32032	32891	33171	32987	
474	0	32663	32263	32689	31857	32703	
475	0	32670	32687	32667	31383	32711	
476	0	32868	33039	32651	31551	32630	
477	0	32908	33251	32763	31926	32489	
478	0	32827	33323	32730	32832	32543	
479	0	32986	33287	32518	33475	32799	
480	0	32967	32990	32674	34002	33023	
481	0	32886	33050	32703	33837	32999	
482	0	32930	32995	32562	32826	33119	
483	0	33000	32941	32663	32335	32979	
484	0	33035	32882	32661	32163	32983	
485	0	33142	33206	32545	32257	33249	
486	0	32936	33381	32527	32486	33397	
487	0	32912	33526	32679	33323	32719	
488	0	32966	33077	32707	33709	32896	
489	0	32893	32719	32626	33339	33309	
490	0	32848	31988	32663	32789	33127	
491	0	32878	31713	32623	32295	32597	
492	0	32914	31725	32699	31667	32600	
493	0	32839	32415	32671	31344	32235	
494	0	32857	32482	32635	31407	32171	
495	0	32839	32311	32803	31743	32429	
496	0	32756	32425	32791	32165	32430	
497	0	32680	32589	32706	32321	32838	
498	0	32677	33085	32646	32967	33543	
499	0	32737	32927	32615	33494	33769	
500	0	32816	32999	32659	33887	33561	
501	0	32827	32624	32687	33991	32952	
502	0	32772	32022	32743	34163	32165	
503	0	32906	31885	32757	34439	32118	
504	0	32896	31651	32675	34327	32215	
505	0	32896	31952	32769	34119	31891	
506	0	32872	32327	32698	33323	31591	
507	0	32847	32934	32571	31965	33131	
508	0	32798	33171	32733	31071	33386	
509	0	32745	33218	32728	31021	33139	
510	0	32792	33331	32673	31469	32731	
511	0	32803	33741	32630	32331	32793	
512	0	32720	33765	32751	33167	33017	
513	0	32717	33383	32774	32897	33046	
514	0	32765	32471	32655	32950	33287	
515	0	32741	31486	32767	32564	33725	
516	0	32737	31143	32821	32493	33823	
517	0	32815	31442	32770	33569	33187	
518	0	32846	31955	32694	34283	32573	
519	0	32793	32554	32615	33991	32839	
520	0	32824	32891	32671	33561	33011	
521	0	32824	33265	32679	32621	32621	
522	0	32904	33119	32775	31589	32577	
523	0	32775	33279	32793	31603	33157	
524	0	32818	33389	32669	32051	33093	
525	0	32739	33375	32697	32063	32711	
526	0	32740	33275	32819	32403	32109	
527	0	32709	33216	32689	32658	32579	
528	0	32664	33037	32727	32693	33057	
529	0	32740	32551	32793	32656	33189	
530	0	32714	32503	32647	32837	32891	
531	0	32825	32120	32833	32835	32967	
532	0	32728	32114	32722	32815	33041	
533	0	32750	32221	32813	32999	33187	
534	0	32760	32537	32691	33287	33173	
535	0	32819	32615	32711	33287	32996	
536	0	32805	32659	32739	33142	32717	
537	0	32801	32662	32695	32803	32706	
538	0	32717	32514	32605	32725	32575	
539	0	32757	32720	32647	32935	32503	
540	0	32832	32627	32679	32792	33017	
541	0	32744	32699	32683	32645	33312	
542	0	32772	32863	32605	32663	33129	
543	0	32791	32734	32577	32711	32499	
544	0	32774	32805	32761	32695	32043	
545	0	32788	32935	32743	32759	32333	
546	0	32839	32799	32813	32731	32213	
547	0	32742	32775	32632	32805	32533	
548	0	32764	32647	32722	32726	33341	
549	0	32809	32687	32743	32788	33215	
550	0	32766	32739	32719	32860	32943	
551	0	32857	32523	32775	32773	33129	
552	0	32886	32681	32626	32859	32678	
553	0	32801	32722	32813	32953	32559	
554	0	32797	32543	32775	32955	33207	
555	0	32728	32524	32689	32775	32845	
556	0	32642	32407	32611	32807	32995	
557	0	32662	32233	32775	32858	32677	
558	0	32649	32087	32701	32635	32647	
559	0	32704	32321	32727	32699	33127	
560	0	32733	32448	32731	32673	33101	
561	0	32815	32775	32646	32789	32785	
562	0	32865	32869	32548	32737	32929	
563	0	32683	33103	32719	32658	32999	
564	0	32709	32799	32747	32723	32881	
565	0	32775	32805	32737	32863	32839	
566	0	32992	32605	32741	32880	32835	
567	0	32824	32565	32754	32743	32711	
568	0	32775	32571	32749	32403	32743	
569	0	32769	32425	32659	32367	32979	
570	0	32758	32635	32851	32539	33194	
571	0	32775	32707	32775	32741	33263	
572	0	32948	32903	32819	32950	33325	
573	0	32947	32925	32803	33214	33286	
574	0	32759	33121	32651	33799	33426	
575	0	32741	33087	32575	33632	33549	
576	0	32811	32985	32757	33399	33376	
577	0	32841	32630	32731	33055	32952	
578	0	32745	32307	32684	32698	32187	
579	0	32699	32083	32677	32321	32041	
580	0	32860	32049	32797	32171	32093	
581	0	32833	32007	32683	32423	32349	
582	0	32740	32379	32582	32511	32629	
583	0	32720	32821	32747	32567	33387	
584	0	32733	33069	32746	32348	33788	
585	0	32734	33075	32775	32045	33953	
586	0	32754	33185	32662	32283	33601	
587	0	32775	32925	32697	32343	32411	
588	0	32907	32925	32609	32390	31221	
589	0	32853	32435	32565	32898	31165	
590	0	32839	32551	32502	33369	31461	
591	0	32898	32463	32594	33575	31967	
592	0	32887	32215	32658	33733	33246	
593	0	32932	32567	32598	34143	33856	
594	0	32834	32733	32623	33678	34087	
595	0	32775	32805	32767	33087	33339	
596	0	32761	32263	32795	32525	32039	
597	0	32707	32191	32827	32437	32363	
598	0	32718	31751	32803	32303	32591	
599	0	32792	31475	32695	32649	32379	
600	0	32824	31559	32646	32807	32011	
601	0	32801	32217	32775	32907	32287	
602	0	32784	33127	32765	33019	33331	
603	0	32770	33799	32775	32525	34080	
604	0	32724	34055	32788	32066	34167	
605	0	32635	33781	32643	32327	33462	
606	0	32722	32799	32587	32765	33159	
607	0	32677	32341	32759	33029	32242	
608	0	32775	31913	32722	32925	31550	
609	0	32832	32235	32717	32561	32199	
610	0	32824	32561	32839	32599	32807	
611	0	32775	32553	32647	32477	33149	
612	0	32752	32743	32670	32337	33448	
613	0	32774	32979	32775	32173	33561	
614	0	32739	33030	32735	32087	33528	
615	0	32819	33135	32723	32341	32915	
616	0	32812	33181	32737	32958	32610	
617	0	32812	32891	32599	33151	32869	
618	0	32728	32824	32731	33347	32859	
619	0	32713	33147	32693	33638	32933	
620	0	32800	33001	32735	33506	32967	
621	0	32768	32941	32813	33517	32883	
622	0	32758	32483	32688	33075	32631	
623	0	32775	32135	32620	32615	32511	
624	0	32832	31907	32559	32824	32845	
625	0	32818	32033	32757	32858	32861	
626	0	32835	32114	32775	32662	33287	
627	0	32792	32419	32727	32643	33047	
628	0	32768	32730	32717	32505	32444	
629	0	32743	32775	32827	32175	32673	
630	0	32789	32525	32751	31683	32975	
631	0	32775	32722	32597	32081	33283	
632	0	32792	32711	32621	32597	33179	
633	0	32787	32807	32711	33447	33007	
634	0	32801	32543	32834	33855	32765	
635	0	32848	32797	32737	34043	32989	
636	0	32829	32747	32753	33906	33315	
637	0	32874	32887	32815	33907	33099	
638	0	32877	32832	32711	32699	33007	
639	0	32664	33005	32679	31323	33331	
640	0	32655	32717	32703	31154	33311	
641	0	32672	32450	32775	31733	32942	
642	0	32749	31989	32711	32257	32609	
643	0	32677	32361	32813	32309	32384	
644	0	32794	32535	32795	32311	32438	
645	0	32805	32863	32695	32775	32255	
646	0	32725	32722	32707	33887	32301	
647	0	32652	32894	32805	33817	32606	
648	0	32614	32987	32709	34037	32763	
649	0	32724	32896	32707	33699	33270	
650	0	32859	33005	32775	33708	33695	
651	0	32877	32921	32577	32922	33971	
652	0	32795	33246	32765	32259	33545	
653	0	32809	32995	32722	31751	32835	
654	0	32729	32871	32761	31425	31789	
655	0	32730	32315	32753	31767	31303	
656	0	32813	32317	32651	32185	31571	
657	0	32813	32162	32647	32786	32154	
658	0	32741	32255	32799	32895	32751	
659	0	32795	31983	32822	32805	33321	
660	0	32931	31984	32719	32879	33923	
661	0	32728	31945	32701	32903	33797	
662	0	32640	32111	32729	32595	33433	
663	0	32746	32162	32679	32897	32805	
664	0	32728	32665	32688	33031	32395	
665	0	32758	32967	32813	33392	32547	
666	0	32839	33154	32583	33663	32246	
667	0	32792	32991	32694	33210	32923	
668	0	32730	32957	32735	32849	33221	
669	0	32766	32691	32669	33317	32815	
670	0	32787	32835	32749	33411	32239	
671	0	32756	32993	32561	33019	31583	
672	0	32701	33159	32741	32358	31667	
673	0	32805	33437	32751	32179	32199	
674	0	32920	33119	32743	32123	33351	
675	0	32827	33167	32647	32317	33840	
676	0	32752	33007	32797	32434	33735	
677	0	32809	32087	32711	33206	33777	
678	0	32800	31263	32813	33503	33647	
679	0	32775	30957	32549	32359	33839	
680	0	32785	31529	32767	31927	33385	
681	0	32775	32461	32760	31947	32334	
682	0	32792	33147	32635	31887	32143	
683	0	32751	33378	32619	32343	32963	
684	0	32678	32903	32813	33207	33190	
685	0	32803	32728	32733	34227	32803	
686	0	32857	32703	32775	34631	32667	
687	0	32804	32555	32639	34178	31910	
688	0	32761	32372	32871	33502	31767	
689	0	32775	32311	32793	32469	32618	
690	0	32747	32507	32630	31535	33107	
691	0	32789	32691	32715	31330	33127	
692	0	32755	32467	32711	31451	32851	
693	0	32833	32453	32763	31833	32775	
694	0	32764	32535	32559	32340	33087	
695	0	32757	32679	32701	33065	33369	
696	0	32764	33049	32733	34087	34300	
697	0	32768	33159	32671	35086	34707	
698	0	32784	33315	32655	34169	34647	
699	0	32775	33415	32759	33203	33281	
700	0	32772	33550	32802	32454	31524	
701	0	32769	33457	32663	31809	29503	
702	0	32680	33470	32693	31687	28779	
703	0	32802	33199	32710	31863	30420	
704	0	32843	32935	32749	32231	32509	
705	0	32736	32454	32631	32615	32963	
706	0	32793	31721	32809	33065	33895	
707	0	32853	31446	32731	33158	34275	
708	0	32900	31149	32755	33019	33821	
709	0	33012	31571	32691	32245	33842	
710	0	32950	32118	32696	32063	33653	
711	0	32818	32857	32647	32415	32719	
712	0	32847	33155	32731	32934	32651	
713	0	32797	33159	32745	33165	32421	
714	0	32771	32866	32701	33479	32588	
715	0	32658	32626	32669	34095	32442	
716	0	32603	32759	32671	33938	32723	
717	0	32636	32996	32639	33347	32989	
718	0	32821	33154	32723	31879	33234	
719	0	32902	33647	32735	31277	33307	
720	0	32924	33751	32763	32247	33215	
721	0	32846	33867	32679	32912	33131	
722	0	32761	33121	32741	33017	33074	
723	0	32771	32135	32711	33266	33123	
724	0	32839	31111	32579	33109	33017	
725	0	32801	30701	32823	32999	32929	
726	0	32770	31054	32717	33039	33077	
727	0	32775	32050	32589	32670	33067	
728	0	32730	32452	32807	32323	32847	
729	0	32717	32597	32702	32211	32933	
730	0	32720	32903	32647	32432	32725	
731	0	32699	32992	32711	32455	32839	
732	0	32723	33325	32728	32413	33103	
733	0	32738	33195	32727	32537	32937	
734	0	32772	33214	32716	32771	32818	
735	0	32745	32848	32862	32857	32775	
736	0	32775	32619	32805	32947	32891	
737	0	32713	32474	32661	33215	32590	
738	0	32840	32821	32870	33171	32579	
739	0	32832	32855	32765	33339	33103	
740	0	32861	32833	32667	33263	34023	
741	0	32806	32579	32847	33127	33935	
742	0	32732	32423	32795	32647	33685	
743	0	32762	32199	32635	32629	32775	
744	0	32794	32454	32720	32805	31254	
745	0	32821	32442	32696	32861	29725	
746	0	32843	32557	32762	32595	30959	
747	0	32863	32394	32627	32415	33118	
748	0	32829	32583	32647	32135	33661	
749	0	32730	32640	32696	31943	33331	
750	0	32792	32956	32571	32089	32519	
751	0	32839	33280	32717	32289	32715	
752	0	32801	33323	32730	32791	33137	
753	0	32592	33363	32647	33449	32534	
754	0	32646	33127	32677	34179	32287	
755	0	32827	33093	32583	33911	33157	
756	0	32851	32729	32757	33837	33199	
757	0	32720	32257	32710	33403	33203	
758	0	32786	31721	32509	32675	33501	
759	0	32965	31489	32787	31895	33623	
760	0	32882	31900	32759	31958	33443	
761	0	32722	32167	32618	32165	33125	
762	0	32740	32261	32821	32403	33207	
763	0	32727	32425	32795	32455	32837	
764	0	32765	32710	32711	32461	32799	
765	0	32807	32747	32794	32582	32681	
766	0	32914	32913	32743	32727	32930	
767	0	32834	33031	32642	32903	33001	
768	0	32751	33543	32788	33555	33023	
769	0	32649	33655	32735	34096	33012	
770	0	32685	33447	32656	33755	32771	
771	0	32698	32485	32803	33197	32436	
772	0	32770	31975	32789	32588	32722	
773	0	32797	31579	32739	32145	33215	
774	0	32804	31791	32721	31629	33473	
775	0	32795	32019	32695	31807	33695	
776	0	32733	32613	32741	32178	33542	
777	0	32803	32767	32751	32515	33175	
778	0	32672	33012	32619	32883	32775	
779	0	32763	32860	32809	33095	32531	
780	0	32786	33147	32728	33243	31937	
781	0	32768	33019	32647	33514	31383	
782	0	32800	32995	32813	33377	32297	
783	0	32774	32945	32665	32877	32543	
784	0	32795	33031	32605	32663	32221	
785	0	32861	32773	32753	32523	31899	
786	0	32864	32727	32741	32350	32082	
787	0	32837	32880	32765	32374	31397	
788	0	32793	32895	32543	32534	31716	
789	0	32757	32931	32770	32589	32775	
790	0	32699	32967	32762	32519	33259	
791	0	32788	32921	32685	32793	33497	
792	0	32844	32647	32773	32995	33097	
793	0	32882	32297	32627	32858	33317	
794	0	32832	32048	32793	32947	33743	
795	0	32882	32033	32748	32933	33903	
796	0	32807	32047	32631	32993	33791	
797	0	32822	32485	32775	32999	33567	
798	0	32775	32555	32711	32546	32851	
799	0	32671	32888	32659	32519	32665	
800	0	32652	32731	32715	32551	32557	
801	0	32715	32607	32707	32899	32186	
802	0	32800	32661	32635	32751	32059	
803	0	32753	33046	32670	33141	32427	
804	0	32770	32959	32723	33467	32981	
805	0	32731	33128	32659	33074	33437	
806	0	32790	32882	32725	32743	33232	
807	0	32813	32903	32692	32583	33351	
808	0	32805	32719	32605	32705	33214	
809	0	32728	32683	32688	32589	33029	
810	0	32793	32230	32767	32671	33010	
811	0	32775	32187	32611	32741	32263	
812	0	32741	32327	32861	32909	32403	
813	0	32774	32529	32791	33253	32975	
814	0	32740	32350	32569	33629	33279	
815	0	32855	32383	32765	33143	32914	
816	0	32864	32196	32743	32685	32431	
817	0	32821	32019	32635	32575	32237	
818	0	32801	32607	32647	32771	32707	
819	0	32825	32807	32775	32987	33275	
820	0	32775	32960	32711	32623	33362	
821	0	32747	32863	32615	31950	33089	
822	0	32801	33069	32805	32104	32865	
823	0	32725	32992	32719	32263	32339	
824	0	32632	32963	32665	32603	32063	
825	0	32736	32672	32746	32818	32340	
826	0	32850	32539	32693	33019	32813	
827	0	32815	32721	32671	33311	32775	
828	0	32849	32711	32691	33215	32505	
829	0	32839	32967	32762	32915	33173	
830	0	32760	32769	32631	32723	33781	
831	0	32736	32597	32839	32569	33339	
832	0	32665	32407	32807	32402	32668	
833	0	32668	32623	32665	32339	32390	
834	0	32733	32557	32730	32731	32351	
835	0	32758	32589	32749	32955	32966	
836	0	32774	32733	32675	33319	33351	
837	0	32824	33139	32763	33247	33371	
838	0	32867	33058	32839	32863	32839	
839	0	32825	32559	32711	32773	32443	
840	0	32875	32427	32737	32813	32839	
841	0	32837	32503	32760	32533	33363	
842	0	32848	32690	32763	32551	33107	
843	0	32769	33375	32601	32775	32623	
844	0	32876	33023	32803	33495	32832	
845	0	32890	32449	32709	33491	32907	
846	0	32855	31457	32626	32687	32877	
847	0	32758	31267	32690	31707	32839	
848	0	32784	31661	32706	31616	32953	
849	0	32726	32190	32767	31642	33155	
850	0	32647	32675	32647	31815	33230	
851	0	32642	32735	32689	32141	33269	
852	0	32586	32899	32591	32947	33578	
853	0	32592	33051	32643	33968	33732	
854	0	32784	33313	32773	34538	33607	
855	0	32936	33328	32757	34186	33633	
856	0	33055	32997	32729	34247	33106	
857	0	32952	32941	32721	33903	32088	
858	0	32848	32775	32747	33415	32007	
859	0	32675	32403	32762	32671	31561	
860	0	32656	32301	32709	32257	31923	
861	0	32713	31959	32759	31949	32667	
862	0	32934	32057	32833	31591	32955	
863	0	32893	32423	32812	31911	33253	
864	0	32839	32467	32711	32259	33391	
865	0	32850	32759	32583	32606	33194	
866	0	32762	32701	32619	32945	32871	
867	0	32775	32940	32791	32667	32226	
868	0	32702	33127	32515	32537	30594	
869	0	32671	33229	32805	32331	30934	
870	0	32888	32967	32805	32303	32279	
871	0	32896	32763	32662	32619	33046	
872	0	32807	32727	32764	33019	32711	
873	0	32712	32661	32851	33135	32886	
874	0	32802	32563	32653	32879	33195	
875	0	32754	32274	32815	32235	33639	
876	0	32609	32737	32671	32414	33771	
877	0	32706	32731	32635	33121	33863	
878	0	32824	32874	32807	32847	33755	
879	0	32815	32929	32741	32899	34160	
880	0	32758	32775	32646	33743	33523	
881	0	32748	32831	32790	33871	33255	
882	0	32676	32427	32775	34159	33337	
883	0	32720	32261	32619	33793	33132	
884	0	32866	32498	32818	31809	32775	
885	0	32892	32991	32721	31355	32895	
886	0	32711	34031	32571	31490	32139	
887	0	32760	34103	32741	31793	32667	
888	0	32698	33419	32677	32486	32709	
889	0	32861	31783	32571	32926	32133	
890	0	32877	30482	32704	33225	30795	
891	0	32887	30512	32703	33917	29583	
892	0	32850	31431	32711	34082	30535	
893	0	32846	32211	32600	33130	32607	
894	0	32787	32794	32761	32337	33557	
895	0	32728	33383	32741	32557	33687	
896	0	32638	33543	32653	33095	33979	
897	0	32711	33435	32662	33519	34199	
898	0	32788	33657	32701	32949	34385	
899	0	32753	33314	32731	32902	33523	
900	0	32772	33015	32707	32123	32209	
901	0	32839	32479	32711	31821	32694	
902	0	32740	32463	32795	32445	33135	
903	0	32816	32121	32693	32925	33084	
904	0	32853	31981	32731	32793	33315	
905	0	32786	31515	32821	33176	33279	
906	0	32809	31675	32709	33135	33085	
907	0	32816	31827	32717	32967	33581	
908	0	32738	32173	32824	32717	33526	
909	0	32715	32515	32667	32259	33351	
910	0	32794	33207	32667	32349	32462	
911	0	32775	33458	32679	32229	32081	
912	0	32757	33607	32769	32181	31827	
913	0	32713	33625	32741	32705	30599	
914	0	32788	33412	32640	33639	31058	
915	0	32726	33442	32775	33111	32474	
916	0	32755	33143	32793	32925	33179	
917	0	32846	32991	32595	32723	33195	
918	0	32838	32509	32747	33007	33219	
919	0	32764	32123	32775	33195	33027	
920	0	32740	31815	32659	32998	32530	
921	0	32841	31479	32709	33165	32199	
922	0	32856	31331	32813	33133	33005	
923	0	32853	31855	32730	32303	33137	
924	0	32886	32723	32743	31699	33671	
925	0	32884	32903	32615	31783	33733	
926	0	32826	33079	32805	31942	33689	
927	0	32728	33021	32749	31728	33638	
928	0	32825	33248	32571	31494	32831	
929	0	32873	33390	32767	32381	32945	
930	0	32831	33190	32729	32987	33459	
931	0	32812	33095	32722	33461	32647	
932	0	32786	32739	32697	34337	32005	
933	0	32693	32695	32563	34201	31535	
934	0	32632	32775	32743	33855	32447	
935	0	32639	32547	32797	33401	33053	
936	0	32728	32359	32633	32967	33191	
937	0	32857	32067	32793	32491	33251	
938	0	32813	32421	32723	32237	33043	
939	0	32775	32527	32673	32185	33287	
940	0	32803	32727	32828	32646	33337	
941	0	32714	32471	32723	32583	33984	
942	0	32741	32831	32551	32429	33530	
943	0	32728	32790	32775	32531	32772	
944	0	32745	32871	32787	32562	33139	
945	0	32740	32683	32578	32417	32351	
946	0	32688	32743	32837	32601	31413	
947	0	32743	32899	32759	32981	31142	
948	0	32789	32845	32589	33302	31191	
949	0	32634	32896	32895	33479	31654	
950	0	32646	32543	32765	33411	32798	
951	0	32627	32433	32610	32983	33485	
952	0	32742	32285	32733	32683	33487	
953	0	32850	32367	32763	32678	33438	
954	0	32749	32915	32667	32425	33671	
955	0	32741	33168	32795	32253	32971	
956	0	32832	33633	32741	32807	32661	
957	0	32850	33550	32655	33050	33085	
958	0	32831	32901	32643	33023	33197	
959	0	33010	32123	32673	33526	33540	
960	0	32978	31218	32774	33903	33909	
961	0	32921	31185	32643	33274	33927	
962	0	32816	31023	32679	33159	33491	
963	0	32742	31358	32775	33199	32418	
964	0	32728	31631	32707	32941	31927	
965	0	32775	32403	32807	32306	31836	
966	0	32729	32886	32743	32168	31743	
967	0	32742	33287	32574	32199	32263	
968	0	32701	33387	32827	32543	32471	
969	0	32762	33619	32741	32673	32519	
970	0	32792	33371	32658	32487	32610	
971	0	32720	33086	32805	32323	33251	
972	0	32730	32793	32792	32263	33235	
973	0	32704	32440	32654	32277	32461	
974	0	32658	32711	32656	32489	31713	
975	0	32685	32679	32683	32619	33191	
976	0	32666	32775	32662	32743	33735	
977	0	32795	32816	32743	32853	33414	
978	0	32793	33089	32667	33287	33219	
979	0	32752	33087	32711	33274	33119	
980	0	32746	32849	32674	33109	33119	
981	0	32827	32467	32635	33063	33133	
982	0	32793	32253	32683	32999	33273	
983	0	32842	32455	32721	32748	33219	
984	0	32893	32535	32579	32727	33223	
985	0	32864	33277	32798	32381	33647	
986	0	32865	33443	32775	32479	33522	
987	0	32797	33583	32543	32355	32985	
988	0	32826	33287	32722	32263	32608	
989	0	32837	32517	32745	32941	32327	
990	0	32863	31584	32498	33539	32607	
991	0	32884	31201	32809	33051	31906	
992	0	32945	31486	32803	32977	32128	
993	0	32797	31843	32569	32845	32627	
994	0	32645	32291	32715	32911	32327	
995	0	32680	32641	32775	32930	32639	
996	0	32697	32821	32775	32918	32845	
997	0	32676	33107	32753	32699	33113	
998	0	32793	33005	32623	31993	33215	
999	0	32961	32643	32710	32146	32775	
1000	0	32927	32711	32770	31879	33063	
1001	0	32939	32611	32740	32476	33216	
1002	0	32876	32895	32706	33625	33767	
1003	0	32839	33091	32711	33794	34222	
1004	0	32775	33229	32800	33840	34145	
1005	0	32706	32681	32775	33715	33785	
1006	0	32775	32297	32617	33543	32634	
1007	0	32824	31971	32789	33095	31485	
1008	0	32775	31800	32775	32131	31099	
1009	0	32709	32051	32743	31815	30029	
1010	0	32730	32143	32703	32050	30679	
1011	0	32691	32399	32553	32343	32263	
1012	0	32716	32493	32775	32678	32187	
1013	0	32755	32611	32805	32697	32375	
1014	0	32768	32939	32627	32798	32693	
1015	0	32764	33287	32717	33215	32888	
1016	0	32832	33617	32817	33869	33304	
1017	0	32821	33263	32611	33319	33839	
1018	0	32796	33015	32681	32556	33927	
1019	0	32775	32617	32685	31703	33465	
1020	0	32711	32603	32768	31874	33015	
1021	0	32676	32485	32733	32219	33239	
1022	0	32638	32571	32599	32635	33253	
1023	0	32784	32351	32769	33060	33397	
1024	0	32830	32475	32663	32967	33507	
1025	0	33024	32569	32654	32915	33573	
1026	0	33026	32898	32647	32833	33751	
1027	0	33008	32997	32683	32683	33119	
1028	0	32938	33287	32633	32695	32871	
1029	0	33034	33255	32755	33083	32146	
1030	0	33056	33205	32661	33159	32289	
1031	0	33016	32886	32559	33063	32167	
1032	0	33061	32813	32677	32835	32169	
1033	0	33017	32553	32671	33191	32591	
1034	0	32989	32353	32635	33637	33021	
1035	0	32915	32335	32637	33123	33017	
1036	0	32937	32878	32559	32575	33318	
1037	0	32948	32887	32751	32601	32659	
1038	0	33019	32766	32746	32557	32499	
1039	0	33096	32183	32583	32576	32083	
1040	0	32961	32104	32822	32387	32229	
1041	0	32888	32063	32775	32301	32763	
1042	0	32848	32166	32599	32399	32945	
1043	0	32809	32283	32772	32820	33507	
1044	0	32646	32727	32801	33053	33960	
1045	0	32527	33010	32679	32983	34055	
1046	0	32406	32793	32837	33195	33727	
1047	0	32278	32503	32867	33270	33344	
1048	0	32277	32356	32747	33152	32622	
1049	0	32139	32395	32943	32839	31815	
1050	0	32210	32199	33001	32677	32323	
1051	0	32226	32289	32871	32559	32947	
1052	0	32359	32391	32918	32583	32579	
1053	0	32352	32755	32813	32564	32335	
1054	0	32381	33045	32889	32536	32368	
1055	0	32493	33135	32887	32454	32471	
1056	0	32412	33551	32797	32589	32429	
1057	0	32604	33575	32927	32642	32637	
1058	0	32630	33423	32851	32667	32241	
1059	0	32616	32925	32919	32923	32013	
1060	0	32718	32016	32831	32839	31869	
1061	0	32857	31825	32689	32791	32531	
1062	0	32917	32135	32762	32817	33193	
1063	0	32955	32121	32680	33055	34263	
1064	0	32961	32259	32495	33265	33991	
1065	0	32958	32643	32706	33338	33397	
1066	0	33046	32955	32685	32711	33581	
1067	0	33016	33171	32519	32247	33023	
1068	0	32960	32919	32655	32189	32633	
1069	0	32936	32447	32675	32028	33247	
1070	0	32870	32487	32583	32175	33214	
1071	0	32890	32711	32577	32655	33427	
1072	0	32941	32899	32611	33431	32381	
1073	0	32940	32775	32637	33655	32215	
1074	0	32942	32304	32593	33698	32410	
1075	0	32738	32447	32619	33330	31803	
1076	0	32873	32455	32701	32879	32231	
1077	0	32950	32611	32698	32891	32363	
1078	0	32865	32973	32569	32857	32343	
1079	0	32872	33095	32735	33397	32863	
1080	0	32722	33287	32812	33223	33150	
1081	0	32748	33095	32727	32656	33591	
1082	0	32713	32433	32763	32043	33607	
1083	0	32698	31903	32672	32079	34075	
1084	0	32720	31097	32755	32146	34183	
1085	0	32720	31471	32711	32327	34012	
1086	0	32792	32107	32615	32607	32948	
1087	0	32841	32628	32754	32825	32113	
1088	0	32833	32921	32703	32871	32355	
1089	0	32834	33247	32641	32672	32943	
1090	0	32865	33710	32775	32605	32086	
1091	0	32855	33799	32755	32996	30565	
1092	0	32795	33947	32666	32797	31187	
1093	0	32800	33223	32759	32445	32007	
1094	0	32728	32465	32717	32121	33055	
1095	0	32711	31393	32775	32263	33455	
1096	0	32709	30905	32677	32289	33271	
1097	0	32769	31378	32751	32565	33283	
1098	0	32795	32191	32821	33235	33019	
1099	0	32849	32911	32619	32743	33091	
1100	0	32904	33219	32833	32687	33215	
1101	0	32981	33021	32658	32947	33287	
1102	0	32952	33243	32551	33351	33196	
1103	0	32833	33183	32827	33694	33042	
1104	0	32733	33280	32699	33622	32801	
1105	0	32704	33439	32727	33725	32831	
1106	0	32732	34111	32647	33978	33423	
1107	0	32799	33911	32675	33433	33667	
1108	0	32676	33303	32575	32717	33885	
1109	0	32648	32603	32749	31807	33150	
1110	0	32758	31831	32743	31613	32337	
1111	0	32717	31643	32615	31981	32050	
1112	0	32703	31179	32694	32143	32057	
1113	0	32846	31299	32775	31614	32663	
1114	0	32765	31527	32735	31871	32829	
1115	0	32945	31703	32751	32527	33061	
1116	0	33065	32057	32575	32799	32671	
1117	0	32985	32626	32795	33465	32603	
1118	0	32853	32965	32727	34400	32891	
1119	0	32582	33155	32817	34206	32650	
1120	0	32547	33279	32807	33959	32839	
1121	0	32632	32902	32659	33217	32919	
1122	0	32855	32881	32751	32139	32705	
1123	0	32800	32735	32771	32479	32995	
1124	0	32732	32685	32855	32855	32913	
1125	0	32860	32735	32813	32548	32445	
1126	0	32838	32707	32659	32450	33009	
1127	0	32730	33033	32739	32465	33195	
1128	0	32738	33270	32627	33079	33042	
1129	0	32749	33373	32749	33584	32967	
1130	0	32813	34006	32720	33339	32683	
1131	0	32834	34451	32706	32698	33287	
1132	0	32741	34130	32681	31997	32721	
1133	0	32740	33099	32592	31237	32133	
1134	0	32753	31885	32735	31363	33309	
1135	0	32733	31149	32674	32743	34518	
1136	0	32890	31430	32839	33607	34541	
1137	0	32871	32135	32739	33327	33567	
1138	0	32880	32097	32590	33183	32137	
1139	0	32775	31655	32735	32741	30498	
1140	0	32789	31629	32647	31890	29825	
1141	0	32860	31310	32774	31672	30789	
1142	0	32868	31597	32775	31791	33199	
1143	0	32849	31936	32573	32391	33137	
1144	0	32884	32114	32669	33059	32824	
1145	0	32720	32723	32685	33861	31931	
1146	0	32745	33275	32775	34992	32252	
1147	0	32812	33121	32691	34861	33333	
1148	0	32863	32888	32605	33799	33786	
1149	0	32728	32575	32685	32973	33827	
1150	0	32757	31958	32751	31623	33781	
1151	0	32836	32335	32570	31268	33648	
1152	0	32834	33071	32650	32583	33463	
1153	0	32804	33867	32663	33347	32833	
1154	0	32700	34672	32775	32493	32433	
1155	0	32708	34785	32775	31593	32900	
1156	0	32715	34715	32704	31959	32583	
1157	0	32723	34678	32745	32164	33073	
1158	0	32757	34563	32704	31793	34017	
1159	0	32805	33887	32799	31769	34751	
1160	0	32820	32775	32716	31719	34555	
1161	0	32813	31735	32553	32879	34808	
1162	0	32743	30846	32766	35617	34898	
1163	0	32775	30767	32774	36192	32917	
1164	0	32839	31055	32582	35231	31446	
1165	0	32863	31119	32702	33397	31602	
1166	0	32818	31239	32685	31993	30723	
1167	0	32784	31303	32791	30889	30445	
1168	0	32858	30629	32775	31155	29763	
1169	0	32728	30517	32733	31717	30439	
1170	0	32731	31096	32711	32481	33898	
1171	0	32967	32505	32552	33923	35512	
1172	0	32925	33524	32743	35309	34526	
1173	0	32822	34422	32839	34491	33915	
1174	0	32739	34775	32705	32421	32939	
1175	0	32713	34489	32711	32571	33165	
1176	0	32616	33919	32703	32845	32293	
1177	0	32625	32845	32726	32343	30863	
1178	0	32648	31847	32735	31701	31279	
1179	0	32736	30769	32829	31751	30909	
1180	0	32697	30947	32605	31801	30903	
1181	0	32713	31455	32815	31859	32510	
1182	0	32664	32239	32743	32237	33317	
1183	0	32792	32838	32653	33115	33071	
1184	0	32766	33125	32803	33126	33319	
1185	0	32760	33685	32743	32439	33887	
1186	0	32775	33459	32623	32635	34311	
1187	0	32857	33415	32745	32163	33374	
1188	0	33042	33472	32745	31941	32998	
1189	0	32996	33287	32611	32522	33105	
1190	0	32907	33695	32719	33053	33543	
1191	0	32750	33907	32775	33412	36770	
1192	0	32604	33899	32711	32453	36473	
1193	0	32634	33415	32759	32658	33783	
1194	0	32617	32717	32617	33665	30967	
1195	0	32675	32455	32850	33942	29713	
1196	0	32717	32547	32797	34463	29678	
1197	0	32803	32647	32607	34559	29686	
1198	0	32833	32507	32738	33707	30103	
1199	0	32858	32679	32797	33412	30339	
1200	0	32806	32868	32715	33007	32871	
1201	0	32792	32433	32706	32711	34229	
1202	0	32760	31175	32681	31731	34755	
1203	0	32709	30061	32811	30628	34279	
1204	0	32855	29871	32787	30147	32587	
1205	0	32946	30486	32571	30285	32528	
1206	0	32904	31762	32727	31133	33733	
1207	0	32944	32815	32775	33477	33856	
1208	0	32920	33791	32555	34255	33963	
1209	0	32756	34041	32743	34263	34451	
1210	0	32672	34311	32685	34755	33780	
1211	0	32691	33759	32545	34183	33397	
1212	0	32748	33261	32741	33509	32434	
1213	0	32853	32769	32708	32474	33110	
1214	0	32866	32583	32583	30179	33791	
1215	0	32742	32583	32743	30013	32223	
1216	0	32728	32626	32710	31411	32323	
1217	0	32681	32775	32647	32175	33027	
1218	0	32673	32822	32718	32979	34232	
1219	0	32821	32795	32739	34170	34610	
1220	0	32837	33282	32773	34867	35485	
1221	0	32891	33275	32805	34601	37649	
1222	0	32926	33263	32586	34399	37965	
1223	0	32857	33039	32807	33046	36973	
1224	0	32672	32573	32744	31939	32936	
1225	0	32714	31492	32569	31653	27855	
1226	0	32784	31127	32765	31954	27712	
1227	0	32824	31223	32678	32231	29596	
1228	0	32837	32089	32737	32221	28972	
1229	0	32732	32941	32765	32717	26877	
1230	0	32706	33151	32751	33155	29259	
1231	0	32675	32461	32698	33193	29217	
1232	0	32637	31639	32697	33342	28859	
1233	0	32775	31591	32734	33799	29671	
1234	0	32792	32442	32818	33769	31239	
1235	0	32656	33223	32615	34063	32029	
1236	0	32658	33700	32768	33782	34664	
1237	0	32775	34551	32812	33013	36485	
1238	0	32752	34922	32673	32309	37451	
1239	0	32907	35173	32858	31805	37123	
1240	0	32837	34959	32825	31023	37383	
1241	0	32856	34023	32615	31553	36357	
1242	0	32855	33287	32775	31983	31527	
1243	0	32825	32036	32790	32734	26247	
1244	0	32813	31168	32599	33205	26944	
1245	0	32905	30460	32775	32283	31383	
1246	0	32800	30418	32805	32543	37069	
1247	0	32748	30215	32661	33318	38897	
1248	0	32771	30005	32695	33159	37279	
1249	0	32770	30478	32594	32423	35741	
1250	0	32760	31451	32698	32157	34095	
1251	0	32649	32516	32731	32451	32899	
1252	0	32581	33536	32613	33031	32733	
1253	0	32588	34371	32696	33150	33360	
1254	0	32665	34247	32689	32438	30502	
1255	0	32661	33390	32795	32337	27112	
1256	0	32632	31967	32797	32698	25697	
1257	0	32689	31361	32709	33415	28757	
1258	0	32740	31485	32717	33530	32529	
1259	0	32824	32365	32605	33235	33825	
1260	0	32852	32881	32743	33581	36509	
1261	0	32882	32843	32775	33439	39610	
1262	0	32818	33187	32759	32825	40335	
1263	0	32820	33287	32803	32562	38215	
1264	0	32764	33413	32775	32491	32788	
1265	0	32685	33383	32669	32592	30273	
1266	0	32680	33235	32751	32749	31313	
1267	0	32730	33255	32635	33093	33649	
1268	0	32760	33251	32844	32215	35461	
1269	0	32793	32934	32761	31826	39937	
1270	0	32807	33003	32575	32237	38571	
1271	0	32821	33061	32747	33362	31994	
1272	0	32720	33270	32775	33536	31076	
1273	0	32761	33368	32677	34403	31777	
1274	0	32796	32631	32711	35061	28969	
1275	0	32967	32117	32763	33775	30245	
1276	0	32923	31776	32631	31746	24795	
1277	0	32902	31723	32711	30441	22708	
1278	0	32846	32300	32775	30450	21288	
1279	0	32805	33002	32549	32327	21789	
1280	0	32830	33462	32758	34563	24089	
1281	0	32736	33427	32761	32907	30232	
1282	0	32684	33267	32559	31259	31569	
1283	0	32727	32741	32825	31887	34503	
1284	0	32697	32602	32775	32263	35113	
1285	0	32741	32525	32601	31535	37559	
1286	0	32804	32497	32771	32036	32711	
1287	0	32769	32594	32743	32902	32071	
1288	0	32775	33325	32795	33392	34039	
1289	0	32845	33391	32739	34715	33668	
1290	0	32817	33390	32774	35874	35577	
1291	0	32732	32690	32747	35640	36773	
1292	0	32812	31974	32601	34566	37575	
1293	0	32812	30919	32751	33405	37671	
1294	0	32856	30554	32795	32978	37207	
1295	0	32946	30755	32753	32489	36743	
1296	0	32696	30967	32721	32246	35970	
1297	0	32626	31539	32767	32579	35801	
1298	0	32744	32275	32767	32303	35075	
1299	0	32891	33410	32594	32125	33207	
1300	0	32827	34577	32612	31069	33580	
1301	0	32829	35534	32753	29929	34695	
1302	0	32834	35577	32723	30509	35686	
1303	0	32875	34374	32729	31567	35256	
1304	0	32775	32605	32795	32850	33262	
1305	0	32787	31019	32839	33315	32214	
1306	0	32800	30892	32807	33390	32399	
1307	0	32709	32309	32745	33472	31065	
1308	0	32681	32947	32763	33360	33031	
1309	0	32674	32435	32749	33187	31295	
1310	0	32728	31419	32577	32668	29722	
1311	0	32795	30227	32569	32520	29937	
1312	0	32764	29839	32671	32894	27422	
1313	0	32772	30215	32813	33235	26663	
1314	0	32842	31517	32750	33001	31303	
1315	0	32904	32762	32743	32430	34147	
1316	0	32834	33943	32771	32412	35235	
1317	0	32720	34771	32787	32287	34383	
1318	0	32613	34885	32723	32365	33811	
1319	0	32622	35117	32797	32301	33095	
1320	0	32676	35171	32726	32433	32295	
1321	0	32969	35031	32742	33135	32737	
1322	0	32996	34883	32703	33458	33138	
1323	0	32818	33839	32746	34002	33571	
1324	0	32800	32917	32617	33567	33549	
1325	0	32886	31879	32737	33534	33577	
1326	0	32800	30367	32711	32229	35124	
1327	0	32612	29386	32484	31330	33856	
1328	0	32683	29903	32737	31601	34363	
1329	0	32681	31162	32761	32717	35631	
1330	0	32617	32169	32615	33755	35993	
1331	0	32629	32931	32711	34412	35207	
1332	0	32666	33463	32761	33559	34177	
1333	0	32668	34168	32593	33287	37336	
1334	0	32755	34265	32761	32505	42031	
1335	0	32850	33863	32751	30865	38589	
1336	0	32818	32643	32631	31361	36387	
1337	0	32952	31445	32727	33430	30663	
1338	0	32992	30693	32775	35406	28245	
1339	0	32930	31518	32736	36774	27503	
1340	0	32999	32467	32679	35109	31375	
1341	0	33100	32995	32661	32973	36073	
1342	0	32912	33698	32724	33479	34538	
1343	0	32922	33666	32715	32101	27887	
1344	0	32888	32854	32634	29121	16578	
1345	0	32890	31888	32736	28889	18418	
1346	0	32880	30811	32710	30761	21448	
1347	0	32872	30394	32590	32031	30333	
1348	0	32740	30761	32837	31975	35043	
1349	0	32571	31919	32844	31773	32625	
1350	0	32527	32359	32675	32521	38633	
1351	0	32528	32877	32753	33077	38279	
1352	0	32612	33046	32812	33065	37301	
1353	0	32568	33167	32696	33144	25545	
1354	0	32646	33420	32690	33725	26851	
1355	0	32738	33627	32768	33609	50136	
1356	0	32690	33723	32656	33223	59106	
1357	0	32705	33591	32755	33425	56091	
1358	0	32809	33516	32689	33845	35204	
1359	0	32825	33462	32834	34195	19611	
1360	0	32728	33287	32792	33257	15855	
1361	0	32750	33231	32615	32335	19092	
1362	0	32980	32983	32850	31328	19366	
1363	0	32829	33111	32769	31378	18113	
1364	0	32694	32757	32611	31321	20775	
1365	0	32825	32700	32759	32097	30804	
1366	0	32797	32809	32733	34107	37331	
1367	0	32834	32936	32726	34963	36527	
1368	0	32605	32959	32801	33301	38493	
1369	0	32562	33287	32775	33347	36573	
1370	0	32552	33671	32754	35264	42073	
1371	0	32576	33763	32720	34245	37568	
1372	0	32667	33264	32585	32432	22298	
1373	0	32733	33063	32687	31463	17031	
1374	0	32960	32807	32735	31221	21305	
1375	0	32943	32787	32688	31043	27041	
1376	0	32965	32629	32711	31443	32105	
1377	0	32968	32045	32592	32347	34814	
1378	0	32927	30971	32791	33458	38459	
1379	0	32985	30795	32833	33158	37634	
1380	0	32989	31636	32753	31420	40829	
1381	0	33015	32607	32709	29728	45191	
1382	0	32890	32747	32590	30625	45759	
1383	0	32747	32591	32694	32417	45502	
1384	0	32784	32285	32696	33847	44019	
1385	0	32712	31973	32546	35547	41512	
1386	0	32669	32080	32786	35050	35696	
1387	0	32647	32068	32770	34600	27574	
1388	0	32720	32064	32587	34525	23873	
1389	0	32670	32914	32736	34066	16688	
1390	0	32568	34567	32790	33814	17538	
1391	0	32536	35352	32677	32600	30326	
1392	0	32628	35059	32710	31687	34600	
1393	0	32787	34119	32696	30471	32361	
1394	0	32946	32159	32805	30695	33982	
1395	0	32925	30055	32746	32051	35219	
1396	0	32988	28807	32594	31361	33039	
1397	0	32878	29083	32793	31279	32504	
1398	0	32720	30955	32787	32659	34128	
1399	0	32610	32919	32607	34087	34799	
1400	0	32715	34847	32820	36013	33026	
1401	0	32839	35046	32717	34840	38016	
1402	0	32804	34489	32735	33543	39177	
1403	0	32706	33415	32694	33987	37313	
1404	0	32716	32205	32763	32693	38919	
1405	0	32821	31584	32804	32785	35804	
1406	0	32748	31232	32708	32402	26915	
1407	0	32706	31457	32747	31899	30791	
1408	0	32656	31836	32845	32163	38095	
1409	0	32589	31935	32655	32459	37311	
1410	0	32664	32400	32841	33667	28679	
1411	0	32744	32775	32749	33679	21469	
1412	0	32781	33579	32650	32353	21485	
1413	0	32844	34904	32806	32479	22479	
1414	0	32818	35270	32651	32601	27297	
1415	0	32772	34989	32775	33124	31266	
1416	0	32740	33799	32729	34444	39527	
1417	0	32864	31584	32698	34243	40025	
1418	0	32903	29983	32710	33607	37400	
1419	0	32973	30070	32500	31834	39463	
1420	0	32996	31213	32813	32165	44605	
1421	0	32904	32156	32789	31140	44575	
1422	0	32789	31977	32647	28644	41962	
1423	0	32720	31429	32775	27454	29751	
1424	0	32856	30880	32807	28418	17933	
1425	0	32842	30761	32672	29982	27300	
1426	0	32861	31289	32665	32160	41095	
1427	0	32916	32497	32698	34284	45394	
1428	0	32957	33142	32606	36155	41025	
1429	0	33096	33669	32672	35718	36172	
1430	0	32996	33877	32795	35067	25207	
1431	0	32804	34352	32653	35380	6706	
1432	0	32583	34306	32586	34994	3946	
1433	0	32618	33957	32786	35399	6914	
1434	0	32608	34060	32736	34504	15600	
1435	0	32698	33785	32647	31750	34247	
1436	0	32541	34189	32791	30691	36959	
1437	0	32465	34887	32775	31213	38369	
1438	0	32573	35487	32677	32199	40180	
1439	0	32805	35155	32753	32701	43011	
1440	0	32750	33680	32809	33447	44450	
1441	0	32793	31874	32615	33491	43676	
1442	0	32686	30075	32789	33103	39457	
1443	0	32708	29036	32666	32623	33255	
1444	0	32766	29127	32837	32263	31382	
1445	0	32905	30434	32799	32047	31271	
1446	0	32923	31661	32655	32043	41330	
1447	0	32994	32444	32744	32327	52836	
1448	0	32786	33351	32692	32480	53293	
1449	0	32805	33735	32775	32629	45613	
1450	0	32677	33772	32717	32688	34728	
1451	0	32624	33740	32613	32832	19040	
1452	0	32629	33686	32710	33109	8337	
1453	0	32708	33475	32623	33287	14563	
1454	0	32680	33468	32768	32936	31853	
1455	0	32711	33513	32768	32547	42038	
1456	0	32741	33095	32702	32261	39867	
1457	0	32930	32582	32669	32060	31495	
1458	0	32916	31997	32656	32512	19005	
1459	0	32829	31514	32767	33060	22280	
1460	0	32784	31545	32809	33112	35301	
1461	0	32801	31832	32620	32763	32460	
1462	0	32849	32197	32863	33397	28407	
1463	0	32824	32140	32799	33479	22090	
1464	0	32573	31788	32573	32575	22907	
1465	0	32740	31652	32671	32707	28929	
1466	0	32976	31905	32615	33995	41762	
1467	0	32889	32869	32466	35518	39151	
1468	0	32865	33510	32701	36035	38441	
1469	0	32864	33485	32805	34811	34164	
1470	0	32621	32913	32763	33689	34647	
1471	0	32512	32421	32839	32256	33415	
1472	0	32516	32217	32658	30118	33119	
1473	0	32658	31951	32887	29047	40096	
1474	0	32832	32525	32873	28739	42419	
1475	0	32898	33560	32792	30163	45974	
1476	0	32744	35216	32688	31026	44026	
1477	0	32675	36696	32788	31860	27813	
1478	0	32608	36845	32827	33186	12307	
1479	0	32718	34843	32821	34063	18501	
1480	0	32861	32312	32649	34157	26007	
1481	0	32892	29676	32813	33655	42016	
1482	0	32927	28261	32672	32740	44793	
1483	0	32952	28287	32720	32744	40643	
1484	0	32808	29172	32508	33440	27544	
1485	0	32757	30215	32726	32861	22553	
1486	0	32933	31266	32644	33846	29812	
1487	0	32792	32240	32549	33386	34253	
1488	0	32745	33469	32752	33711	27752	
1489	0	32800	34067	32738	35984	17862	
1490	0	32800	34585	32812	36154	26401	
1491	0	32832	35327	32621	33421	36844	
1492	0	32770	35527	32793	30786	38802	
1493	0	32800	34823	32792	29639	37743	
1494	0	32813	33235	32706	29889	35973	
1495	0	32844	32091	32805	31090	33786	
1496	0	32986	31382	32793	32811	32731	
1497	0	33223	31187	32805	33811	34708	
1498	0	33208	31633	32775	34326	36930	
1499	0	32957	32151	32595	34243	37014	
1500	0	32850	33146	32619	32987	35250	
1501	0	32662	33307	32681	31367	34803	
1502	0	32712	33253	32815	30279	33696	
1503	0	32696	32801	32816	31199	30009	
1504	0	32739	32377	32819	32963	30551	
1505	0	32598	32289	32695	34167	34042	
1506	0	32557	32031	32812	34266	34336	
1507	0	32672	32799	32775	34247	34750	
1508	0	32697	33485	32711	34191	32817	
1509	0	32673	33671	32599	33883	30843	
1510	0	32696	33121	32641	32321	31217	
1511	0	32600	32521	32700	30458	34469	
1512	0	32728	32743	32809	30629	39724	
1513	0	32847	32483	32729	31823	40094	
1514	0	32859	31908	32711	33251	35992	
1515	0	32770	30930	32813	33115	32071	
1516	0	32660	30193	32619	33095	36690	
1517	0	32590	29445	32775	33034	37878	
1518	0	32718	29862	32792	33392	40197	
1519	0	32672	31085	32592	34262	43955	
1520	0	32596	32608	32737	34414	34300	
1521	0	32681	33417	32748	32731	15628	
1522	0	32816	34392	32795	31977	10800	
1523	0	32904	34813	32635	31879	14294	
1524	0	32860	35234	32773	31666	17670	
1525	0	32728	35335	32739	31867	27733	
1526	0	32748	35285	32711	32055	34311	
1527	0	32736	34883	32685	32138	36719	
1528	0	32840	33935	32797	32199	37383	
1529	0	32876	33427	32770	32411	38807	
1530	0	32786	32639	32628	33223	37891	
1531	0	32698	32634	32791	32825	34375	
1532	0	32748	32735	32774	33440	31931	
1533	0	32630	33047	32689	34045	34060	
1534	0	32592	32863	32801	34867	33935	
1535	0	32688	32091	32731	34276	33987	
1536	0	32690	31303	32539	34599	34183	
1537	0	32717	30037	32771	33397	34461	
1538	0	32886	29815	32722	33799	35841	
1539	0	32912	30522	32739	35425	33875	
1540	0	32909	31439	32623	34931	33216	
1541	0	32796	32244	32839	31867	31175	
1542	0	33009	32605	32775	30547	30723	
1543	0	33090	32517	32628	28975	34771	
1544	0	33126	32349	32723	29594	38303	
1545	0	33016	32909	32679	29717	39431	
1546	0	32822	33383	32701	31467	37879	
1547	0	32813	33216	32559	32846	35469	
1548	0	32774	33207	32641	32832	28485	
1549	0	32825	33007	32710	31152	26401	
1550	0	32771	33681	32507	31033	34618	
1551	0	32781	33434	32770	31751	29229	
1552	0	32678	33259	32760	32387	24711	
1553	0	32661	32441	32590	33953	25767	
1554	0	32669	32320	32705	35490	35017	
1555	0	32676	33085	32717	34979	35151	
1556	0	32526	33981	32763	34562	37625	
1557	0	32691	34621	32717	32893	37687	
1558	0	32696	35002	32757	31104	31586	
1559	0	32586	35081	32839	31487	28406	
1560	0	32573	34601	32807	32829	31532	
1561	0	32584	33555	32731	34738	30078	
1562	0	32596	32595	32903	36082	35928	
1563	0	32658	31547	32843	35783	40384	
1564	0	32738	30087	32634	34082	37819	
1565	0	32966	29291	32789	33208	36391	
1566	0	33153	29368	32745	33381	40381	
1567	0	32988	30625	32538	33896	32420	
1568	0	32861	31652	32633	31234	18901	
1569	0	32788	31935	32666	29168	25008	
1570	0	32895	31908	32455	29328	37627	
1571	0	33042	32457	32681	31715	32875	
1572	0	33016	32691	32693	33820	27469	
1573	0	32736	33187	32397	33650	30527	
1574	0	32899	33278	32733	33035	26960	
1575	0	32713	33815	32745	32409	27552	
1576	0	32704	33759	32579	31411	32077	
1577	0	32741	33771	32831	30727	34515	
1578	0	32654	32947	32768	31489	34448	
1579	0	32665	31895	32637	31783	36253	
1580	0	32716	30599	32763	33072	40001	
1581	0	32745	30809	32701	33330	40105	
1582	0	32625	31938	32811	33503	39559	
1583	0	32747	33188	32739	32665	29905	
1584	0	32714	33943	32743	32903	24215	
1585	0	32718	34713	32881	32741	26219	
1586	0	32775	34966	32790	32765	30974	
1587	0	32594	35165	32824	32610	34487	
1588	0	32701	35355	32709	32565	35795	
1589	0	32571	34895	32839	33501	36952	
1590	0	32775	34162	32749	35828	28646	
1591	0	33170	32559	32707	34838	32415	
1592	0	33036	31304	32595	33236	37890	
1593	0	32824	30791	32793	33477	43525	
1594	0	32970	30926	32694	33944	46557	
1595	0	32835	31257	32642	33282	39245	
1596	0	32658	31209	32600	32487	28426	
1597	0	32462	30882	32816	32868	32438	
1598	0	32590	30693	32722	31807	38676	
1599	0	32963	30840	32775	31397	20211	
1600	0	33020	31056	32631	31128	11933	
1601	0	32809	31672	32731	31008	28708	
1602	0	32784	32194	32740	31713	34030	
1603	0	32937	33406	32610	33757	16054	
1604	0	33140	33929	32640	33849	13653	
1605	0	33094	34275	32725	33016	23627	
1606	0	32960	34203	32717	32319	35190	
1607	0	32941	34013	32664	31773	37761	
1608	0	33058	33138	32634	32966	40866	
1609	0	32557	32119	32447	34951	41061	
1610	0	32518	31407	32469	33608	39543	
1611	0	32787	31725	32679	32225	38128	
1612	0	32876	32045	32564	33984	36887	
1613	0	32829	31859	32711	34496	33650	
1614	0	33025	31795	32673	33083	32567	
1615	0	33328	32315	32527	33039	38331	
1616	0	33262	33575	32589	32607	39019	
1617	0	32984	34349	32673	32816	39083	
1618	0	32730	35015	32715	35199	37147	
1619	0	32734	34786	32798	33497	32210	
1620	0	32757	34584	32749	32647	30163	
1621	0	32832	33851	32580	31705	32615	
1622	0	32930	33397	32603	31605	36653	
1623	0	33084	32228	32741	31332	37831	
1624	0	32936	31430	32722	30875	37591	
1625	0	32725	31316	32756	30772	28822	
1626	0	32662	31990	32853	31386	19110	
1627	0	32613	32166	32692	31856	20399	
1628	0	32480	32147	32692	32801	28806	
1629	0	32404	32063	32807	33010	34402	
1630	0	32424	32699	32879	33799	34653	
1631	0	32386	33443	32927	34575	33103	
1632	0	32327	33327	32980	34625	35416	
1633	0	32206	32894	32927	33351	37622	
1634	0	32274	30971	32845	33606	37383	
1635	0	32163	29283	33001	33423	34843	
1636	0	32285	28970	32889	32909	33373	
1637	0	32361	30394	33012	31157	35075	
1638	0	32392	32365	32812	30480	40017	
1639	0	32501	33026	33039	31210	40588	
1640	0	32387	33130	32888	31455	38199	
1641	0	32324	32417	32879	31575	34322	
1642	0	32484	31976	32586	30597	22344	
1643	0	32666	32082	32621	31389	15242	
1644	0	32856	32628	32594	33057	23407	
1645	0	33170	33439	32541	33775	29475	
1646	0	33161	34554	32796	33907	32793	
1647	0	33287	36167	32727	33343	33492	
1648	0	33116	37885	32754	33183	28570	
1649	0	32928	39111	32704	33450	23218	
1650	0	33000	38783	32631	33259	25722	
1651	0	33090	36607	32622	32717	37162	
1652	0	32996	33714	32627	32775	43055	
1653	0	32866	31195	32666	33536	42371	
1654	0	32844	28015	32664	34036	43795	
1655	0	32809	25629	32736	33769	33386	
1656	0	32960	25232	32809	32979	20368	
1657	0	33120	25991	32686	32478	24921	
1658	0	33005	27578	32653	33783	34057	
1659	0	32825	29575	32620	32999	34550	
1660	0	32753	31485	32682	32930	29119	
1661	0	32755	33016	32709	33031	31632	
1662	0	32957	33799	32697	32409	32431	
1663	0	32792	34609	32701	32215	33106	
1664	0	32697	34914	32785	31958	37571	
1665	0	32816	35570	32718	32058	43241	
1666	0	32839	36055	32863	32227	48319	
1667	0	32775	36402	32809	31940	41360	
1668	0	32665	36163	32740	32093	26861	
1669	0	32752	34605	32838	31896	29462	
1670	0	32696	32751	32775	31930	26947	
1671	0	32661	30563	32687	32501	31267	
1672	0	32487	29743	32736	33287	36307	
1673	0	32587	29901	32858	35507	30794	
1674	0	32836	31379	32844	36417	24555	
1675	0	32805	32863	32623	35963	28670	
1676	0	32855	32821	32831	34517	33568	
1677	0	32774	31894	32825	33698	40071	
1678	0	32881	31503	32789	34147	42150	
1679	0	32978	32648	32700	33406	34544	
1680	0	32961	34280	32591	32899	20581	
1681	0	32969	34172	32690	33074	24207	
1682	0	32767	34077	32552	33062	25845	
1683	0	32661	33722	32722	31352	32824	
1684	0	32710	33202	32736	30893	39266	
1685	0	32703	32534	32580	30713	41536	
1686	0	32772	32519	32710	30659	45639	
1687	0	32818	32887	32673	30261	37986	
1688	0	32768	33671	32789	29494	29974	
1689	0	32772	34759	32676	28963	21093	
1690	0	32690	35106	32669	30751	16382	
1691	0	32839	34968	32561	32257	18789	
1692	0	32856	34247	32690	32711	31520	
1693	0	32896	32711	32674	33941	36907	
1694	0	32775	31426	32789	35147	33927	
1695	0	32797	30435	32683	35347	33599	
1696	0	32804	29993	32837	34847	34922	
1697	0	32832	30567	32646	34535	36774	
1698	0	32611	31043	32853	34045	35189	
1699	0	32353	31124	32788	33393	37636	
1700	0	32564	30753	32834	32775	34327	
1701	0	32784	31483	32740	31751	30031	
1702	0	32582	32945	32483	30163	37920	
1703	0	32678	34887	32658	30101	38471	
1704	0	32884	36509	32660	31297	38900	
1705	0	32948	36407	32576	33442	41310	
1706	0	32993	34998	32710	35559	35968	
1707	0	32932	33089	32725	37740	26301	
1708	0	33024	30584	32576	38380	27291	
1709	0	32964	29016	32886	38949	28547	
1710	0	32848	27748	32846	35967	21852	
1711	0	32692	28140	32608	30717	29940	
1712	0	32681	29364	32742	26310	38145	
1713	0	32556	30564	32793	26609	39109	
1714	0	32800	31007	32651	29077	37531	
1715	0	32642	31889	32797	30605	34967	
1716	0	32812	32727	32654	32001	28847	
1717	0	32850	33406	32548	31834	29723	
1718	0	33313	33911	32605	31331	30407	
1719	0	33152	34755	32623	31741	34206	
1720	0	32863	35445	32720	32216	38752	
1721	0	32800	35775	32633	33131	39823	
1722	0	32540	35651	32711	33091	37617	
1723	0	32546	35197	32630	32409	28259	
1724	0	32673	34447	32763	32127	23013	
1725	0	32729	34205	32647	32529	28598	
1726	0	32660	34207	32792	33799	30599	
1727	0	32836	33920	32655	35375	32715	
1728	0	32967	33172	32733	37299	40341	
1729	0	32715	32775	32601	38373	41274	
1730	0	32703	32327	32819	37161	36436	
1731	0	32880	31557	32818	33490	33675	
1732	0	32937	30805	32696	30450	23823	
1733	0	32888	30934	32688	29161	8531	
1734	0	32962	31300	32484	30690	6879	
1735	0	32972	31248	32616	30395	25837	
1736	0	32620	31922	32609	31352	43960	
1737	0	32616	32368	32733	32263	45371	
1738	0	32678	33004	32711	33071	41513	
1739	0	32610	33514	32825	33671	45293	
1740	0	32584	33651	32790	33119	44034	
1741	0	32586	32583	32757	31984	39274	
1742	0	32677	30979	32850	30235	35427	
1743	0	32774	30697	32775	29871	33821	
1744	0	32668	32281	32769	31577	31980	
1745	0	32864	34311	32747	34549	25382	
1746	0	32664	35695	32855	37683	22880	
1747	0	32841	35356	32790	40164	30546	
1748	0	32964	33662	32711	38953	39792	
1749	0	32907	30918	32540	34152	36316	
1750	0	33032	28670	32707	30213	33789	
1751	0	33052	28495	32541	29137	33898	
1752	0	32879	29991	32709	29725	35312	
1753	0	32857	31507	32799	30593	34731	
1754	0	32692	33241	32711	31603	30403	
1755	0	32672	34770	32752	31504	39431	
1756	0	32489	35913	32807	31589	36449	
1757	0	32455	36679	32671	31863	32295	
1758	0	32512	36160	32665	31083	21333	
1759	0	32660	35071	32666	31269	28269	
1760	0	32642	32677	32732	32525	22701	
1761	0	32672	30169	32789	33587	18711	
1762	0	32560	28760	32792	35328	16141	
1763	0	32805	28118	32644	36678	17653	
1764	0	32944	29618	32869	37664	32176	
1765	0	32762	31285	32796	34933	41313	
1766	0	32768	32979	32590	31332	43884	
1767	0	32923	34596	32527	29545	41989	
1768	0	32914	35436	32646	29519	42774	
1769	0	33000	36347	32671	30851	39266	
1770	0	32935	37445	32749	32898	37479	
1771	0	33088	37291	32775	34406	35747	
1772	0	33011	36676	32813	35063	37064	
1773	0	33019	33347	32868	34395	36464	
1774	0	33074	29065	32740	33168	32797	
1775	0	33020	26456	32890	31682	26464	
1776	0	32902	26297	32733	30946	30338	
1777	0	32830	28563	32753	31869	28271	
1778	0	32548	30257	32839	32091	29165	
1779	0	32368	31064	32657	32022	36622	
1780	0	32500	32337	32647	32349	37268	
1781	0	32514	33299	32813	32975	36034	
1782	0	32640	33187	32613	32498	37759	
1783	0	32594	32907	32711	33106	41351	
1784	0	32522	32895	32661	33479	36299	
1785	0	32600	32967	32759	33231	32199	
1786	0	32760	33356	32666	33051	33734	
1787	0	32932	32421	32730	32523	28079	
1788	0	32974	31503	32553	32123	23867	
1789	0	32932	32169	32634	32162	19756	
1790	0	32829	32952	32741	31162	18395	
1791	0	32860	34012	32761	31651	27812	
1792	0	32938	34880	32825	34509	39752	
1793	0	33044	34678	32747	35936	46119	
1794	0	32914	34137	32726	34496	37246	
1795	0	32745	32955	32633	32726	35207	
1796	0	32854	31861	32723	32167	34736	
1797	0	32784	31728	32792	29633	30114	
1798	0	32622	32211	32694	28882	23315	
1799	0	32453	32699	32703	29931	31588	
1800	0	32485	34146	32664	30711	38488	
1801	0	32653	34631	32745	32404	44496	
1802	0	32666	34434	32845	34823	41391	
1803	0	32675	34328	32743	35040	30853	
1804	0	32914	34165	32805	35434	27504	
1805	0	32866	33305	32656	36835	27437	
1806	0	32840	31101	32714	35356	29812	
1807	0	32668	29755	32574	33561	28846	
1808	0	32691	29989	32827	32730	23778	
1809	0	32745	31520	32770	31378	31652	
1810	0	32909	32628	32661	32797	39449	
1811	0	32730	32835	32719	33563	39607	
1812	0	32642	32479	32670	33783	35554	
1813	0	32738	31582	32575	34859	35726	
1814	0	32696	31389	32847	33699	36381	
1815	0	32845	32836	32769	31145	32815	
1816	0	32875	34297	32640	30550	27009	
1817	0	32888	35405	32803	29817	25062	
1818	0	32780	35883	32857	31707	32453	
1819	0	32812	35712	32692	32801	35768	
1820	0	33001	35515	32775	32323	38646	
1821	0	33040	33773	32775	32568	36304	
1822	0	32784	30556	32677	33841	37500	
1823	0	32586	27942	32967	33160	40583	
1824	0	32658	27693	32877	33409	36176	
1825	0	32693	28914	32633	33730	33195	
1826	0	32677	30887	32693	33412	32827	
1827	0	32656	32246	32557	33714	24392	
1828	0	32809	33488	32695	34626	21055	
1829	0	32840	34758	32756	32630	26175	
1830	0	32642	36175	32711	30215	34574	
1831	0	32504	36679	32795	28874	35093	
1832	0	32556	35254	32723	29253	31749	
1833	0	32573	32998	32749	30711	26586	
1834	0	32754	30714	32787	33339	23759	
1835	0	32736	29778	32676	36460	28000	
1836	0	32797	30784	32720	36736	41252	
1837	0	32809	33188	32696	33653	40838	
1838	0	32775	35410	32775	31751	37994	
1839	0	32583	37052	32765	31391	40356	
1840	0	32792	36867	32709	32463	34923	
1841	0	32704	34370	32787	32569	29149	
1842	0	32908	31099	32760	32534	34010	
1843	0	32856	28618	32563	33213	31947	
1844	0	33095	28007	32775	33667	28647	
1845	0	33168	29417	32762	33815	30825	
1846	0	32952	30864	32604	33552	23589	
1847	0	32906	31418	32809	32775	22981	
1848	0	32725	31712	32730	31592	29913	
1849	0	32767	31238	32624	30693	34230	
1850	0	32717	31204	32761	30570	35966	
1851	0	32665	31447	32578	30971	41232	
1852	0	32655	31559	32717	33000	40743	
1853	0	32648	32384	32595	35954	31672	
1854	0	32681	33606	32609	36696	24125	
1855	0	32618	34015	32596	35387	24960	
1856	0	32687	34071	32723	33936	32667	
1857	0	32680	33602	32721	33208	38889	
1858	0	32677	33102	32801	31719	40403	
1859	0	32620	33287	32813	31780	35649	
1860	0	32688	33349	32799	32275	33377	
1861	0	33044	33270	32619	32484	38863	
1862	0	32976	33127	32545	32120	37682	
1863	0	32884	33884	32741	31666	28832	
1864	0	32932	34036	32743	30708	20935	
1865	0	32903	33970	32765	31034	26860	
1866	0	32813	33296	32853	31501	43088	
1867	0	32760	32557	32790	30679	44473	
1868	0	32740	31859	32674	32160	30709	
1869	0	32787	31169	32750	34898	20643	
1870	0	32863	31541	32727	34498	28252	
1871	0	32800	31794	32679	33925	38787	
1872	0	32813	32469	32631	35199	38715	
1873	0	32640	33811	32699	35113	36192	
1874	0	32624	34170	32699	34687	33057	
1875	0	32729	33347	32749	31648	30303	
1876	0	32740	33247	32768	30592	36615	
1877	0	32849	33947	32825	29551	34155	
1878	0	32593	34686	32775	29410	27463	
1879	0	32589	35757	32797	30460	31608	
1880	0	32668	35884	32693	33013	38685	
1881	0	32612	34503	32615	35349	38215	
1882	0	32361	32597	32701	36406	35645	
1883	0	32664	30832	32848	36825	29353	
1884	0	33007	29505	32630	35200	18247	
1885	0	33093	29205	32650	32056	24522	
1886	0	32985	29861	32835	30068	33270	
1887	0	32940	30000	32807	30385	27849	
1888	0	32742	29869	32660	32071	26162	
1889	0	32455	30994	32600	33239	33202	
1890	0	32498	32923	32738	33799	36854	
1891	0	32674	34244	32757	33580	42799	
1892	0	32812	35109	32726	32656	47373	
1893	0	32868	35108	32775	32258	37117	
1894	0	33224	35173	32711	32553	27761	
1895	0	32955	34637	32647	32384	24655	
1896	0	32848	33814	32597	31858	26160	
1897	0	32812	32753	32711	31943	29755	
1898	0	32775	31123	32797	31911	38498	
1899	0	32880	30099	32722	32575	37504	
1900	0	32725	29627	32583	33867	38521	
1901	0	32826	29811	32601	34686	30209	
1902	0	32813	30447	32685	34741	33907	
1903	0	32839	30827	32604	35143	34333	
1904	0	33037	31485	32648	33859	28193	
1905	0	33189	32263	32775	32545	28549	
1906	0	33216	33121	32729	31456	28327	
1907	0	32899	33549	32792	31090	32832	
1908	0	32725	34258	32659	30307	39717	
1909	0	32572	35130	32594	31377	42523	
1910	0	32615	36209	32774	33829	39235	
1911	0	32612	35730	32768	33646	29658	
1912	0	32582	34752	32711	30591	23973	
1913	0	32417	32689	32751	31700	26448	
1914	0	32668	30079	32756	34345	31278	
1915	0	32861	28365	32623	34515	32150	
1916	0	32986	28135	32775	33182	33261	
1917	0	33106	29698	32849	32337	34237	
1918	0	33062	31239	32647	32663	37234	
1919	0	33065	33259	32586	34507	32291	
1920	0	32969	34627	32688	34875	36719	
1921	0	32829	35031	32805	32873	35021	
1922	0	32511	35207	32742	31767	37263	
1923	0	32547	35002	32711	32863	38233	
1924	0	32595	34474	32820	32008	28022	
1925	0	32508	33031	32672	30811	28802	
1926	0	32480	31323	32640	30721	37288	
1927	0	32512	31687	32745	31535	39606	
1928	0	32517	32407	32702	32627	28754	
1929	0	32741	33043	32862	32172	27275	
1930	0	33048	33612	32751	30876	27240	
1931	0	33092	34512	32626	30811	21733	
1932	0	32843	35826	32651	33126	19379	
1933	0	32865	37228	32739	34996	26706	
1934	0	32614	37846	32698	33812	33709	
1935	0	32321	36111	32709	33591	35527	
1936	0	32614	32613	32723	34820	31903	
1937	0	32666	29379	32829	35686	28252	
1938	0	32832	26950	32898	33998	29698	
1939	0	32997	25959	32843	32751	34811	
1940	0	33001	26611	32775	33053	37808	
1941	0	32823	28174	32790	32171	37808	
1942	0	32949	30227	32749	31195	38237	
1943	0	32987	32939	32753	31330	39485	
1944	0	32873	34770	32715	32223	41068	
1945	0	32569	35282	32734	31742	41536	
1946	0	32720	34915	32655	31922	41107	
1947	0	32767	33749	32755	32263	40578	
1948	0	32602	32982	32691	31842	35387	
1949	0	32528	32359	32813	32971	25927	
1950	0	32720	32645	32688	34603	31815	
1951	0	32824	33700	32729	33684	22904	
1952	0	32852	34873	32801	32654	22970	
1953	0	32720	35371	32679	33093	30775	
1954	0	32818	34903	32675	33173	31654	
1955	0	32936	32921	32649	33344	34235	
1956	0	32999	30722	32873	32992	38068	
1957	0	32953	29508	32751	32708	34267	
1958	0	32840	29860	32611	32833	21328	
1959	0	32775	30017	32621	32754	17839	
1960	0	32844	31075	32681	33039	24922	
1961	0	33008	32883	32716	32916	29297	
1962	0	32988	34443	32591	33163	38045	
1963	0	32690	35809	32700	34021	44626	
1964	0	32735	36985	32802	34541	47371	
1965	0	32573	35179	32795	34037	41378	
1966	0	32838	30879	32876	33008	33296	
1967	0	33049	27867	32906	33172	33944	
1968	0	33032	27511	32598	32551	35602	
1969	0	32737	30299	32832	31649	36688	
1970	0	32706	33103	32799	31737	34588	
1971	0	32498	35362	32715	32225	37661	
1972	0	32457	35726	32727	32028	34138	
1973	0	32662	35220	32731	31732	20762	
1974	0	32546	33213	32708	31848	24258	
1975	0	32599	31621	32596	32465	30437	
1976	0	32927	30643	32696	33733	30760	
1977	0	32918	30816	32775	33430	40123	
1978	0	32914	31360	32619	31496	37462	
1979	0	32944	32623	32770	30541	24007	
1980	0	32856	33455	32768	31549	21187	
1981	0	32716	33309	32767	34268	37063	
1982	0	32701	33155	32609	35949	35099	
1983	0	32756	33778	32775	36358	40164	
1984	0	32724	33754	32671	34974	32407	
1985	0	32680	33670	32697	33129	19677	
1986	0	32648	32427	32508	31399	24887	
1987	0	32732	32070	32726	29955	28846	
1988	0	32706	32177	32775	29147	30289	
1989	0	32678	32641	32754	30113	30560	
1990	0	32674	33523	32797	31815	31170	
1991	0	32738	34532	32636	32774	39997	
1992	0	32734	35110	32824	33773	46075	
1993	0	32805	34342	32787	35156	45345	
1994	0	32688	33086	32519	34903	43775	
1995	0	32915	32665	32495	32722	37663	
1996	0	33202	33418	32540	30831	29803	
1997	0	33234	34886	32711	30738	25292	
1998	0	33083	34707	32710	32306	24393	
1999	0	32792	32967	32634	33912	28575	
2000	0	32690	31202	32706	34665	31660	
2001	0	32864	28103	32761	33823	36051	
2002	0	32833	26581	32736	33120	29680	
2003	0	32838	27271	32605	34045	31372	
2004	0	32696	29639	32648	34685	38910	
2005	0	32720	32288	32920	31107	33516	
2006	0	32720	33286	32835	29883	23469	
2007	0	32590	33815	32727	30287	22729	
2008	0	32708	33581	32792	31035	29932	
2009	0	32674	33362	32677	32076	35363	
2010	0	32557	34253	32768	33623	35495	
2011	0	32499	34413	32787	34731	32379	
2012	0	32644	34338	32621	34187	38496	
2013	0	32860	33208	32775	32395	44224	
2014	0	32748	32849	32699	32215	46296	
2015	0	32792	32689	32615	32376	36461	
2016	0	32843	32890	32797	33387	32104	
2017	0	32896	33321	32896	34486	31779	
2018	0	32781	34067	32731	35261	27086	
2019	0	32743	35204	32775	36320	33330	
2020	0	32794	35357	32746	35645	34137	
2021	0	32728	34216	32694	34136	17059	
2022	0	32563	31648	32699	31520	12068	
2023	0	32538	29624	32546	30150	32497	
2024	0	32816	29514	32747	30148	38043	
2025	0	32576	30617	32896	30153	31479	
2026	0	32762	32167	32589	30764	30871	
2027	0	32940	34796	32731	31627	31906	
2028	0	32809	37034	32770	32071	36602	
2029	0	32873	37895	32706	32313	40023	
2030	0	32520	36112	32725	32695	43369	
2031	0	32305	32055	32771	33108	45275	
2032	0	32634	27064	32742	32215	40016	
2033	0	33044	24601	32732	32016	33721	
2034	0	33496	25213	32770	32473	26119	
2035	0	33363	27443	32595	33675	22637	
2036	0	32926	29477	32632	34861	30826	
2037	0	32813	31019	32775	35245	32834	
2038	0	32843	32720	32680	36323	31097	
2039	0	32802	34636	32742	36463	27786	
2040	0	32740	35771	32654	35357	28747	
2041	0	32716	35843	32733	32514	28985	
2042	0	32826	35607	32764	29861	32134	
2043	0	32965	35154	32675	29274	31232	
2044	0	32904	34749	32803	29018	27401	
2045	0	32987	34000	32634	28678	26759	
2046	0	32899	34713	32563	29149	32804	
2047	0	32856	34648	32736	31751	45297	
2048	0	32898	33646	32712	36160	57976	
2049	0	32664	32707	32643	37255	58755	
2050	0	32477	32879	32615	36063	55815	
2051	0	32610	32800	32722	34310	39098	
2052	0	32788	32866	32721	32775	11576	
2053	0	32857	33661	32659	34713	5065	
2054	0	32833	33658	32722	37797	17976	
2055	0	32861	32317	32803	34108	22022	
2056	0	32663	30249	32645	30483	23472	
2057	0	32585	29411	32712	29437	29117	
2058	0	32644	28776	32836	28969	36780	
2059	0	32729	29157	32583	29289	44464	
2060	0	32796	29703	32800	30359	40582	
2061	0	32740	30951	32722	31733	24347	
2062	0	32624	32506	32819	33199	33777	
2063	0	32642	34555	32824	33287	33484	
2064	0	32530	35699	32801	32881	28659	
2065	0	32379	36577	32775	33455	34962	
2066	0	32528	37234	32738	32827	34562	
2067	0	32796	36959	32775	33927	32333	
2068	0	32905	35542	32727	34967	38463	
2069	0	32838	32635	32585	34539	35143	
2070	0	32953	30667	32588	33953	32775	
2071	0	33025	29096	32896	33072	41799	
2072	0	33093	28994	32825	32757	34126	
2073	0	33020	29923	32627	32655	27681	
2074	0	32996	30891	32768	31346	24557	
2075	0	33028	31967	32698	31961	23418	
2076	0	33036	32451	32672	31973	31943	
2077	0	32785	32909	32726	31773	31150	
2078	0	32578	33356	32765	32517	32852	
2079	0	32443	33935	32794	33927	42761	
2080	0	32523	33491	32543	34311	41415	
2081	0	33006	33059	32742	33096	36167	
2082	0	32940	32236	32741	32329	21332	
2083	0	32863	31983	32693	31891	28249	
2084	0	32617	31833	32775	30881	26032	
2085	0	32534	32939	32775	30469	24665	
2086	0	32632	35196	32785	30788	31699	
2087	0	32699	36143	32741	32611	37221	
2088	0	32825	35709	32811	32772	37093	
2089	0	32693	34227	32784	32839	41472	
2090	0	32656	32390	32755	32576	42413	
2091	0	32728	31314	32803	33052	39501	
2092	0	32880	30104	32843	32240	42337	
2093	0	32928	29133	32888	32639	43437	
2094	0	32652	29767	32792	32885	44231	
2095	0	32728	31014	32645	33433	43122	
2096	0	32693	31884	32652	33678	24199	
2097	0	32872	32361	32751	33241	17524	
2098	0	32813	33195	32671	34951	18356	
2099	0	32624	33209	32594	36758	24705	
2100	0	32803	33559	32647	36609	31832	
2101	0	32794	34635	32754	33606	23855	
2102	0	32686	35368	32688	30985	16065	
2103	0	32640	35333	32561	32135	17786	
2104	0	32680	34599	32580	34002	34000	
2105	0	32990	33962	32704	34130	41896	
2106	0	33015	33827	32711	32605	43231	
2107	0	32802	33071	32690	31567	38481	
2108	0	32788	32440	32680	30975	34529	
2109	0	32809	31616	32753	30633	26886	
2110	0	32812	30432	32741	30712	31857	
2111	0	33001	29541	32596	31741	36923	
2112	0	32982	28834	32619	31984	40784	
2113	0	32952	28823	32620	32160	42355	
2114	0	32784	29773	32761	32758	33223	
2115	0	32560	31907	32891	34311	28487	
2116	0	32358	33722	32880	34503	33523	
2117	0	32561	34918	32706	34374	29685	
2118	0	32644	35231	32828	33723	28285	
2119	0	32937	34274	32822	33019	30604	
2120	0	32801	33975	32667	32448	32626	
2121	0	32936	33528	32797	32455	33005	
2122	0	33038	33272	32674	32922	31003	
2123	0	32928	32565	32685	33817	32475	
2124	0	33062	31863	32702	34066	33687	
2125	0	33142	31136	32775	33248	35641	
2126	0	32747	31441	32763	31719	35349	
2127	0	32566	32000	32599	30359	35098	
2128	0	32577	32745	32766	29581	33091	
2129	0	32677	33873	32711	29406	30503	
2130	0	32748	35488	32738	31710	24788	
2131	0	32648	35943	32626	36038	28999	
2132	0	32710	35631	32727	36480	34526	
2133	0	32691	35266	32752	35799	37477	
2134	0	32759	34646	32571	35230	44518	
2135	0	32788	33266	32731	32168	43399	
2136	0	32680	31493	32743	30235	41926	
2137	0	32545	29860	32603	30598	38575	
2138	0	32621	29319	32825	30587	37195	
2139	0	32455	30658	32775	31109	31617	
2140	0	32468	32325	32588	32007	22640	
2141	0	32842	32661	32646	34269	22418	
2142	0	33184	31618	32789	36652	23917	
2143	0	33341	30179	32818	35923	38822	
2144	0	33112	30338	32775	34751	37343	
2145	0	32960	31026	32720	33554	40098	
2146	0	32684	31642	32740	32518	32019	
2147	0	32604	31720	32772	31520	13446	
2148	0	32676	31218	32701	31743	5427	
2149	0	32773	31524	32706	31807	16631	
2150	0	32692	31920	32680	31482	32272	
2151	0	32648	32881	32775	31077	44708	
2152	0	32742	34863	32672	31228	46756	
2153	0	32848	37176	32713	30572	36568	
2154	0	32711	39013	32747	31332	27766	
2155	0	32569	39366	32757	33636	40528	
2156	0	32485	36965	32767	34424	41890	
2157	0	32582	33070	32765	34199	34707	
2158	0	32785	28658	32860	32640	40795	
2159	0	32831	25607	32611	31192	35173	
2160	0	32910	26081	32835	30783	30466	
2161	0	32744	28567	32682	31111	30765	
2162	0	32669	30258	32573	33328	28096	
2163	0	32725	31920	32609	35383	30708	
2164	0	32844	33655	32549	34384	26610	
2165	0	32948	34496	32754	33146	34759	
2166	0	32902	34408	32765	33157	33855	
2167	0	32730	33794	32615	35022	32099	
2168	0	32687	33375	32786	36163	29743	
2169	0	32857	33490	32797	35389	30079	
2170	0	32850	33230	32873	33446	27655	
2171	0	32722	32301	32669	30623	32734	
2172	0	32646	31866	32764	30049	39189	
2173	0	32688	31713	32655	29840	44867	
2174	0	32806	31858	32795	28627	47336	
2175	0	32713	32749	32568	30006	45056	
2176	0	32932	33808	32755	32382	29330	
2177	0	32775	35092	32711	32747	9795	
2178	0	32646	35064	32848	33070	31144	
2179	0	32552	33990	32809	34447	37361	
2180	0	32748	33859	32844	34883	40186	
2181	0	33004	34166	32788	33548	22880	
2182	0	32850	34451	32719	32465	22316	
2183	0	32846	33991	32679	32341	35250	
2184	0	32836	32729	32699	31696	33816	
2185	0	33104	30814	32708	32765	32140	
2186	0	33160	30265	32619	33634	31505	
2187	0	33287	30365	32567	33607	35835	
2188	0	33173	30802	32632	34424	29675	
2189	0	33188	31094	32629	33671	31457	
2190	0	33152	31479	32455	32935	28628	
2191	0	33253	32039	32398	33677	26915	
2192	0	33287	32855	32487	34435	28739	
2193	0	33152	33679	32605	34978	30599	
2194	0	33016	34322	32646	33833	36810	
2195	0	33146	34166	32537	32248	46207	
2196	0	32873	33875	32739	31557	47347	
2197	0	32646	33428	32679	31697	47707	
2198	0	32636	33844	32657	32669	37538	
2199	0	32423	33590	32759	33654	25150	
2200	0	32519	32613	32738	32143	30252	
2201	0	32888	31136	32727	32337	34598	
2202	0	33038	30928	32808	34030	19666	
2203	0	32853	31706	32716	34150	21202	
2204	0	32592	32736	32764	33752	35897	
2205	0	32199	32743	32688	33170	39373	
2206	0	31859	32857	32850	33106	28713	
2207	0	31680	32091	32991	32199	25024	
2208	0	32128	31099	32995	32129	24655	
2209	0	32508	31103	32954	32607	28545	
2210	0	32577	32578	33013	32817	34473	
2211	0	32484	34207	32858	32353	42804	
2212	0	32169	35979	32839	31540	43968	
2213	0	31870	36635	32895	30628	42655	
2214	0	31879	35194	32995	30050	41026	
2215	0	32100	33675	32932	30509	23712	
2216	0	32255	32458	32945	31250	16172	
2217	0	32396	30885	32855	31910	20299	
2218	0	32775	29605	32738	33448	31133	
2219	0	32909	28633	32758	34857	36304	
2220	0	33013	29272	32845	36029	39373	
2221	0	33092	31312	32673	35819	45762	
2222	0	33146	32803	32507	34520	51843	
2223	0	33264	34018	32552	33299	49659	
2224	0	33208	34761	32704	30952	28472	
2225	0	33090	34944	32680	28976	16671	
2226	0	32920	34463	32691	30065	18319	
2227	0	32724	33818	32648	32277	32340	
2228	0	32898	32833	32690	33426	33678	
2229	0	33084	32159	32719	33415	26306	
2230	0	33112	30437	32791	33167	26215	
2231	0	33274	28025	32696	33776	25168	
2232	0	33184	26695	32583	33347	21523	
2233	0	33184	26868	32557	32855	28167	
2234	0	32969	29170	32572	33490	33212	
2235	0	32669	32809	32618	33372	41504	
2236	0	32661	36374	32787	33780	44359	
2237	0	32724	38695	32803	33736	38306	
2238	0	32802	38579	32835	31716	36975	
2239	0	32873	36914	32761	30823	39840	
2240	0	32789	34302	32720	30445	36960	
2241	0	32769	32142	32647	31227	39838	
2242	0	32899	30998	32737	31850	48199	
2243	0	32792	30429	32573	31532	38599	
2244	0	32789	29908	32855	31547	16880	
2245	0	32749	29743	32737	31969	13043	
2246	0	32559	31083	32565	32285	22781	
2247	0	32650	32006	32762	32557	25551	
2248	0	32898	32096	32695	32752	28461	
2249	0	32808	32807	32628	34545	31330	
2250	0	32860	33847	32728	34823	32644	
2251	0	32827	34026	32800	35780	38688	
2252	0	32640	34209	32775	36147	43780	
2253	0	32669	34447	32666	34869	51632	
2254	0	32724	34843	32761	33245	52329	
2255	0	32827	34281	32805	31965	47313	
2256	0	32986	33223	32710	31255	37409	
2257	0	32963	33008	32556	31762	8551	
2258	0	32857	33491	32775	32760	1332	
2259	0	33065	34284	32672	33204	10544	
2260	0	33147	34533	32612	33340	31627	
2261	0	33052	34629	32754	33079	44860	
2262	0	32868	34167	32711	33063	42944	
2263	0	32980	32427	32708	33095	32516	
2264	0	32960	30935	32671	33363	23544	
2265	0	32832	29846	32735	33864	33886	
2266	0	32839	29307	32837	33214	36985	
2267	0	32931	28679	32525	32679	38045	
2268	0	32921	29082	32833	32521	37197	
2269	0	32513	30373	32775	32403	28103	
2270	0	32519	31441	32855	32274	24997	
2271	0	32526	32146	32633	32753	35845	
2272	0	32704	33121	32690	32545	38587	
2273	0	33005	33778	32507	32231	37010	
2274	0	32932	34293	32594	32313	41637	
2275	0	32735	34608	32637	32167	37809	
2276	0	32512	35035	32711	32500	37575	
2277	0	32425	35265	32795	32621	32194	
2278	0	32302	34642	32775	32229	23448	
2279	0	32612	34278	32670	31874	22896	
2280	0	32762	34488	32685	32162	35437	
2281	0	32577	33831	32827	32832	40435	
2282	0	32597	33279	32805	32958	31880	
2283	0	32853	33144	32801	32450	20551	
2284	0	32637	33047	32730	31507	20827	
2285	0	32320	32898	32762	32803	23873	
2286	0	32588	33193	32690	34179	35472	
2287	0	32992	33324	32784	35564	47891	
2288	0	32898	32913	32789	35865	52934	
2289	0	32884	32805	32813	34905	47042	
2290	0	32646	32290	32656	34375	37986	
2291	0	32753	31507	32823	34166	30119	
2292	0	32966	31059	32903	31285	31672	
2293	0	33000	31086	32868	30774	27286	
2294	0	32856	30709	32675	30879	22006	
2295	0	32878	28739	32549	30727	21731	
2296	0	32763	27738	32770	31081	19191	
2297	0	32698	29409	32716	32469	17928	
2298	0	32816	31674	32532	33863	21565	
2299	0	33216	33021	32736	34139	31961	
2300	0	33133	33472	32737	33028	35112	
2301	0	32904	32470	32621	31292	42283	
2302	0	32741	31807	32767	29434	42631	
2303	0	32596	31893	32670	29216	40918	
2304	0	32528	32626	32775	28871	42729	
2305	0	32594	33928	32756	29319	51739	
2306	0	32718	34222	32576	30709	51950	
2307	0	32723	34117	32758	34182	51000	
2308	0	32744	34976	32752	34562	28062	
2309	0	32788	35808	32803	33873	5465	
2310	0	32704	36242	32805	34915	9182	
2311	0	32662	35955	32591	34256	21442	
2312	0	32720	35412	32677	33203	30180	
2313	0	32795	34448	32730	34264	39689	
2314	0	32891	32835	32674	34211	38151	
2315	0	32926	31992	32770	35177	23573	
2316	0	33198	30809	32858	34833	24944	
2317	0	33172	29135	32855	34350	45771	
2318	0	32989	28166	32807	34722	38441	
2319	0	32780	27260	32664	34864	27027	
2320	0	32804	27229	32788	34004	15308	
2321	0	32815	28044	32756	33637	23136	
2322	0	32792	30266	32550	33130	40632	
2323	0	32691	32293	32815	32089	44799	
2324	0	32712	33673	32829	30831	40210	
2325	0	32637	34759	32637	29157	37044	
2326	0	32714	37053	32721	30180	35387	
2327	0	32754	38989	32756	31745	37349	
2328	0	33020	39007	32771	32570	34246	
2329	0	32960	37325	32831	33025	33570	
2330	0	33000	33905	32709	33166	37801	
2331	0	32868	31735	32519	33150	34754	
2332	0	32835	30818	32685	32527	29132	
2333	0	32817	30596	32774	31781	28721	
2334	0	32801	30458	32614	31512	19240	
2335	0	32958	31011	32688	32237	23352	
2336	0	32937	32601	32684	34088	37037	
2337	0	32876	34068	32509	34772	39961	
2338	0	32402	35122	32701	34293	30990	
2339	0	32460	35110	32753	33577	25542	
2340	0	32700	34697	32794	33692	34344	
2341	0	32512	33644	32757	32914	43261	
2342	0	32775	31172	32773	31638	41854	
2343	0	33241	28255	32617	31515	41594	
2344	0	33663	26869	32703	32263	41477	
2345	0	33536	28346	32795	33840	33399	
2346	0	33116	30845	32752	33646	15025	
2347	0	32640	32829	32906	32613	19344	
2348	0	32398	34663	32863	32768	27157	
2349	0	32253	35623	32688	33189	27640	
2350	0	32322	35966	32749	33839	29021	
2351	0	32306	35335	32598	33271	32259	
2352	0	31993	34929	32607	32021	34194	
2353	0	32036	34563	32770	30853	33407	
2354	0	32647	33467	32713	31231	35158	
2355	0	32812	31669	32822	32113	34863	
2356	0	32569	30120	32733	33189	35642	
2357	0	32621	29389	32825	34083	37021	
2358	0	32824	30500	32868	33950	33856	
2359	0	32965	32803	32660	32898	37700	
2360	0	32996	34865	32762	31807	40347	
2361	0	33140	35301	32711	31141	40309	
2362	0	32977	33283	32503	31062	40066	
2363	0	32842	32080	32743	31651	41739	
2364	0	32995	31565	32718	31703	44377	
2365	0	32853	31504	32696	32519	46871	
2366	0	32560	31154	32824	34884	37289	
2367	0	32648	29952	32617	35540	15534	
2368	0	33206	30264	32805	35401	5400	
2369	0	33296	33426	32791	33982	3085	
2370	0	33008	36226	32667	31962	24420	
2371	0	32836	35840	32821	32019	33126	
2372	0	32809	32753	32717	32789	34115	
2373	0	32596	29296	32582	33154	36621	
2374	0	32553	28339	32566	33266	48608	
2375	0	32672	29890	32599	32261	50616	
2376	0	32696	32424	32695	31140	42971	
2377	0	32528	34879	32529	30395	35659	
2378	0	32456	36050	32624	31250	17094	
2379	0	32569	35834	32640	31687	9244	
2380	0	32864	34640	32573	33433	23622	
2381	0	33064	33070	32757	34445	35262	
2382	0	32893	31527	32757	33890	37583	
2383	0	32735	30236	32537	33282	35518	
2384	0	32656	29513	32825	34031	34231	
2385	0	32729	29439	32836	32608	32549	
2386	0	32976	29671	32685	30477	29047	
2387	0	32866	30283	32876	30404	35392	
2388	0	32752	31351	32823	32084	38669	
2389	0	32826	33050	32672	32868	43178	
2390	0	32514	34279	32815	34420	43789	
2391	0	32864	34979	32795	35026	39189	
2392	0	32914	35441	32706	34626	23137	
2393	0	32738	35888	32755	33913	6087	
2394	0	32679	35271	32744	32263	21725	
2395	0	32704	34403	32642	31963	33139	
2396	0	32840	34194	32762	33610	42562	
2397	0	32626	33983	32801	33561	44278	
2398	0	32578	33902	32875	32248	46183	
2399	0	32672	33576	32803	29991	50946	
2400	0	32761	33248	32668	29264	32320	
2401	0	32808	32585	32741	29679	13693	
2402	0	32711	32154	32683	31032	23047	
2403	0	32795	31239	32583	33023	32324	
2404	0	32801	30707	32775	33197	30911	
2405	0	32809	30707	32713	33899	30569	
2406	0	32820	31521	32868	34727	26509	
2407	0	32724	33235	32822	35073	26459	
2408	0	32808	34669	32820	34992	31945	
2409	0	32804	35813	32823	35847	38175	
2410	0	32656	36934	32766	35349	34967	
2411	0	32598	37469	32731	33344	41798	
2412	0	32588	37319	32751	31339	45063	
2413	0	32766	35478	32692	31175	37494	
2414	0	32921	32286	32763	32502	31794	
2415	0	32967	28503	32806	33799	33903	
2416	0	33080	25712	32493	34302	27222	
2417	0	33168	25107	32647	34591	28255	
2418	0	33219	25128	32740	33717	31655	
2419	0	33312	26482	32487	32706	31181	
2420	0	33165	29703	32809	32137	30615	
2421	0	32939	33013	32775	31851	25484	
2422	0	32535	34795	32760	31318	25169	
2423	0	32116	34688	32817	31330	32356	
2424	0	32276	33269	32685	30684	37361	
2425	0	32506	33159	32583	30505	37049	
2426	0	32394	33811	32658	31429	36143	
2427	0	32432	34663	32687	32233	35319	
2428	0	32536	34432	32633	33302	37029	
2429	0	32705	33412	32749	34435	35909	
2430	0	32570	33268	32737	35460	37570	
2431	0	32627	33699	32741	35369	42351	
2432	0	32568	34502	32809	34692	30205	
2433	0	32430	35015	32735	32547	28715	
2434	0	32536	34311	32624	30601	24135	
2435	0	32750	33328	32845	29591	17355	
2436	0	32853	32690	32809	29728	33892	
2437	0	32888	31059	32583	30951	43053	
2438	0	32953	30471	32775	32199	40731	
2439	0	33065	30597	32775	33588	33106	
2440	0	33080	30803	32647	33686	30407	
2441	0	32967	30611	32807	32963	27941	
2442	0	32944	30211	32698	32707	30019	
2443	0	33064	31273	32588	32327	30415	
2444	0	33236	33319	32699	32950	25625	
2445	0	32898	35157	32660	34101	34657	
2446	0	32825	36921	32796	35194	40012	
2447	0	32640	37383	32743	35686	43582	
2448	0	32775	36259	32760	35022	28214	
2449	0	32775	33449	32770	33304	28195	
2450	0	32861	30416	32666	30702	39788	
2451	0	32906	29703	32848	30116	39040	
2452	0	32636	29538	32793	30496	21750	
2453	0	32821	30402	32616	31751	22341	
2454	0	33140	31157	32823	33154	29099	
2455	0	32869	32441	32711	33323	29074	
2456	0	32495	32711	32622	33168	30563	
2457	0	32362	31186	32817	33200	38630	
2458	0	32653	30059	32688	33023	44900	
2459	0	32839	30013	32589	32354	48978	
2460	0	32960	31539	32877	31928	38727	
2461	0	32890	33444	32828	32392	23264	
2462	0	32708	34554	32716	33216	13200	
2463	0	32601	35289	32834	33117	18786	
2464	0	32472	34927	32713	33136	32544	
2465	0	32416	33951	32627	34053	40247	
2466	0	32612	33156	32812	33609	45026	
2467	0	32870	32890	32775	32097	44519	
2468	0	32880	33140	32658	31361	38313	
2469	0	32855	33809	32699	31207	25429	
2470	0	32758	34706	32685	31806	30570	
2471	0	32739	34401	32691	32646	35615	
2472	0	32896	33767	32580	32960	32106	
2473	0	32762	33269	32743	32854	26088	
2474	0	32732	32898	32745	32539	24243	
2475	0	32775	32915	32746	32658	28176	
2476	0	32768	33211	32775	33711	30060	
2477	0	32818	33171	32617	34589	32365	
2478	0	32742	32441	32658	33181	32189	
2479	0	32797	31307	32715	33719	29656	
2480	0	32775	29714	32705	34299	27117	
2481	0	32728	29627	32636	33605	29327	
2482	0	32684	30397	32613	32416	39983	
2483	0	32875	30990	32691	31729	43702	
2484	0	32888	31970	32594	31982	45319	
2485	0	32928	32947	32600	32805	51588	
2486	0	33072	33495	32806	32912	50667	
2487	0	33065	34091	32775	32356	39575	
2488	0	32882	34194	32621	33160	29330	
2489	0	32719	34146	32824	34393	17205	
2490	0	32685	33926	32717	33755	17887	
2491	0	32594	33863	32711	33517	27294	
2492	0	32668	33733	32690	33927	28498	
2493	0	32829	33369	32813	33986	28920	
2494	0	32687	33431	32703	33152	31949	
2495	0	32804	33799	32774	31264	38879	
2496	0	32701	33678	32674	30897	48083	
2497	0	32710	33700	32605	31584	34179	
2498	0	32621	34290	32787	32365	24097	
2499	0	32637	34212	32765	32741	15814	
2500	0	32795	32859	32630	31385	15081	
2501	0	32893	30934	32863	30937	25653	
2502	0	33088	30083	32797	31626	33710	
2503	0	32897	30461	32683	32557	38989	
2504	0	32440	31849	32563	33458	40021	
2505	0	32263	32351	32724	34412	48003	
2506	0	32493	31335	32685	33912	37685	
2507	0	32561	30311	32559	32906	29959	
2508	0	32575	30132	32619	32069	31914	
2509	0	32765	30759	32751	31773	30742	
2510	0	32804	32647	32743	31799	27255	
2511	0	33079	34712	32758	33312	32454	
2512	0	32984	36849	32731	34597	40684	
2513	0	32800	36973	32726	34381	37479	
2514	0	32622	36295	32731	33639	33717	
2515	0	32570	33824	32615	33382	33878	
2516	0	32877	30424	32620	32837	32457	
2517	0	33038	28146	32768	32825	31983	
2518	0	33088	27139	32824	32607	31703	
2519	0	32898	27975	32746	31542	31821	
2520	0	32998	29755	32801	30628	39282	
2521	0	33024	32165	32868	30575	38488	
2522	0	32797	34300	32770	31747	26603	
2523	0	32952	34599	32752	31783	27356	
2524	0	32996	34621	32775	33037	33211	
2525	0	32918	35024	32621	33861	34211	
2526	0	32571	34725	32818	33577	40470	
2527	0	32495	33559	32793	33031	42978	
2528	0	32583	31469	32573	33982	27369	
2529	0	32789	28909	32787	34299	21073	
2530	0	32816	27398	32729	33393	27062	
2531	0	32741	27894	32519	32659	26130	
2532	0	32755	29427	32727	33127	28456	
2533	0	32888	31736	32711	33250	35421	
2534	0	32829	33794	32670	31599	39588	
2535	0	32792	36013	32634	31271	43527	
2536	0	32709	36647	32726	31480	38743	
2537	0	32592	36678	32731	32393	25933	
2538	0	32560	35950	32751	33486	26702	
2539	0	32583	34475	32741	33696	25223	
2540	0	32615	33061	32607	33415	26107	
2541	0	32598	33070	32514	32980	34503	
2542	0	32619	34626	32466	32374	36045	
2543	0	32872	34873	32559	32087	32449	
2544	0	33018	33965	32620	32345	36781	
2545	0	32989	32585	32711	33013	31632	
2546	0	32943	32500	32839	33161	28608	
2547	0	32905	33710	32899	33217	38452	
2548	0	32691	34457	32749	32297	36118	
2549	0	32455	33775	32702	31650	36463	
2550	0	32685	31680	32738	32103	35475	
2551	0	32850	29737	32744	32906	41846	
2552	0	32893	28891	32745	33607	48603	
2553	0	33068	29800	32711	33600	33816	
2554	0	32930	30772	32804	34148	14022	
2555	0	32796	31575	32761	34608	14913	
2556	0	32756	32438	32675	33574	30491	
2557	0	32993	32455	32741	33722	37429	
2558	0	33024	32144	32691	33681	35499	
2559	0	32806	32391	32647	32942	29458	
2560	0	32678	33383	32800	32154	20824	
2561	0	32596	34265	32712	31540	29733	
2562	0	32660	34564	32603	31082	41835	
2563	0	32636	34559	32807	31139	44135	
2564	0	32576	35246	32734	31699	37939	
2565	0	32775	35218	32633	32441	36423	
2566	0	32664	33940	32775	32998	34636	
2567	0	32805	32961	32743	33501	22235	
2568	0	32770	32662	32643	32541	34203	
2569	0	32930	33110	32775	32735	35002	
2570	0	33068	33452	32743	33051	26532	
2571	0	32966	32896	32667	33366	19352	
2572	0	32914	31303	32800	35184	30968	
2573	0	32896	29377	32775	36061	36344	
2574	0	32628	28615	32630	34307	34235	
2575	0	32380	29343	32759	31536	33217	
2576	0	32308	30959	32896	30087	33740	
2577	0	32379	32836	32631	30148	38092	
2578	0	32418	34105	32663	31269	39162	
2579	0	32607	34455	32709	31939	38965	
2580	0	32660	34933	32687	32567	35551	
2581	0	32736	35179	32765	34165	32119	
2582	0	32678	34559	32792	35556	23747	
2583	0	32822	32929	32812	35572	25687	
2584	0	32937	30784	32546	32640	37420	
2585	0	32966	28750	32644	30900	41369	
2586	0	33117	28876	32521	30215	45639	
2587	0	33174	31171	32643	30343	46279	
2588	0	33083	33644	32712	32263	37880	
2589	0	32922	35376	32704	33605	23146	
2590	0	32744	34789	32656	34173	17154	
2591	0	32829	33622	32699	34304	15955	
2592	0	32847	32816	32736	33618	25159	
2593	0	32936	32123	32825	33120	37971	
2594	0	32802	32787	32679	32071	39256	
2595	0	32677	33181	32767	31708	35579	
2596	0	32713	32462	32772	32381	14293	
2597	0	32960	31995	32692	32984	28712	
2598	0	32932	32434	32595	33397	36738	
2599	0	32978	32525	32730	33287	39157	
2600	0	32995	31545	32775	32873	38659	
2601	0	33004	29719	32583	32055	40570	
2602	0	32956	28679	32746	30626	38721	
2603	0	32808	29046	32696	30140	29846	
2604	0	32513	30558	32764	30480	21474	
2605	0	32334	32082	32755	31213	17022	
2606	0	32218	34386	32753	32437	22177	
2607	0	32308	36576	32804	33536	43915	
2608	0	32377	38046	32742	34330	49513	
2609	0	32334	37791	32775	35642	43826	
2610	0	32563	35000	32768	36807	34735	
2611	0	32786	31898	32528	35660	26554	
2612	0	32948	29813	32695	33796	30203	
2613	0	33129	29729	32697	31613	31507	
2614	0	33170	29959	32769	30295	31747	
2615	0	32918	30632	32583	32277	32630	
2616	0	32849	31712	32773	32273	36162	
2617	0	32742	33063	32765	31467	36247	
2618	0	32768	34209	32775	31583	38150	
2619	0	32893	35243	32688	32344	33044	
2620	0	32996	36038	32681	33758	33244	
2621	0	32930	36087	32711	34198	39096	
2622	0	32732	35255	32657	34281	38946	
2623	0	32600	34137	32800	34077	34759	
2624	0	32622	33157	32751	32647	23149	
2625	0	32532	32499	32792	32417	11899	
2626	0	32698	31357	32751	32192	20087	
2627	0	32904	30072	32680	31801	27499	
2628	0	32870	29381	32722	31283	34975	
2629	0	32842	29552	32628	31522	40900	
2630	0	32936	31173	32807	32928	51719	
2631	0	33273	32703	32711	35115	44120	
2632	0	32993	34251	32711	35067	39085	
2633	0	32886	34655	32759	34755	30900	
2634	0	32760	34119	32688	33754	30961	
2635	0	32852	32921	32622	32604	20506	
2636	0	32952	31994	32746	33751	25669	
2637	0	32888	31373	32657	34066	31959	
2638	0	32829	31627	32813	32643	26727	
2639	0	32734	32468	32870	31967	26112	
2640	0	32685	33319	32686	30673	33123	
2641	0	32749	33735	32494	29447	34096	
2642	0	32458	33839	32583	30343	40327	
2643	0	32524	34112	32704	32805	30436	
2644	0	32590	33287	32786	34503	24507	
2645	0	32616	32345	32753	33097	31405	
2646	0	33028	31979	32775	31605	35742	
2647	0	32936	32191	32826	30885	34093	
2648	0	32654	31973	32619	31316	38787	
2649	0	32530	32037	32601	32978	37511	
2650	0	32557	32031	32735	34823	31879	
2651	0	33009	31891	32775	35151	33111	
2652	0	32998	32858	32775	34983	34725	
2653	0	32870	34278	32825	34375	38511	
2654	0	32738	35234	32813	32990	38294	
2655	0	32765	34285	32801	32474	36387	
2656	0	32788	33195	32651	32114	33287	
2657	0	32556	32080	32587	31335	26254	
2658	0	32676	31255	32514	31800	27885	
2659	0	32855	30611	32596	31940	36175	
2660	0	32836	30855	32589	31555	38738	
2661	0	32816	31517	32713	32489	39471	
2662	0	32967	32120	32711	33773	37882	
2663	0	32966	32130	32640	34220	29352	
2664	0	32955	31484	32613	34472	16551	
2665	0	32966	32148	32789	33465	13849	
2666	0	33090	33563	32813	32421	23748	
2667	0	32916	33830	32746	31744	35798	
2668	0	32801	33089	32767	32199	46048	
2669	0	32685	32130	32837	31832	41447	
2670	0	32674	31349	32621	30538	44950	
2671	0	32596	31996	32528	30961	32220	
2672	0	32608	32446	32652	32242	15631	
2673	0	32784	32493	32631	33728	22751	
2674	0	32728	32522	32784	34680	39130	
2675	0	32788	32354	32831	34286	46514	
2676	0	32702	32678	32843	34453	38621	
2677	0	32612	32250	32775	34585	38557	
2678	0	32678	31588	32755	32775	33026	
2679	0	32626	32199	32740	31030	21314	
2680	0	32904	33321	32743	30264	24756	
2681	0	32904	33837	32639	30546	30042	
2682	0	32876	34008	32709	31274	17476	
2683	0	32840	34256	32662	32452	21459	
2684	0	32773	33963	32593	32345	36102	
2685	0	32787	33757	32731	32368	39658	
2686	0	32564	33188	32738	32994	43878	
2687	0	32602	32521	32624	34695	47764	
2688	0	32662	32251	32863	35897	47716	
2689	0	32449	32188	32768	36205	41688	
2690	0	32394	32803	32698	34823	25428	
2691	0	32580	32944	32852	33959	15057	
2692	0	32866	32744	32775	32536	22921	
2693	0	33117	33005	32577	31565	33028	
2694	0	33146	33678	32767	30891	36598	
2695	0	33047	34147	32675	31425	36098	
2696	0	32742	33859	32603	32119	39178	
2697	0	32804	32903	32698	33123	39555	
2698	0	33082	31504	32712	33090	23648	
2699	0	32853	31777	32576	32942	24697	
2700	0	32557	33158	32903	32402	32737	
2701	0	32713	33619	32861	32067	28877	
2702	0	32738	32801	32678	31773	28219	
2703	0	32675	30991	32821	31747	37359	
2704	0	32445	29986	32775	30740	34759	
2705	0	32370	30527	32485	30667	34187	
2706	0	32557	31055	32645	31741	30523	
2707	0	32820	31201	32816	33011	34883	
2708	0	32968	31357	32697	35710	35747	
2709	0	32976	32253	32807	37505	30626	
2710	0	32870	33516	32791	36175	33953	
2711	0	32925	34144	32639	33142	33968	
2712	0	32816	34529	32727	31435	28388	
2713	0	32595	34352	32610	31382	25960	
2714	0	32548	32611	32735	31269	31260	
2715	0	32884	31465	32772	31699	40472	
2716	0	33147	31639	32701	31971	39204	
2717	0	32979	32440	32808	31431	31165	
2718	0	32601	34489	32775	31897	29425	
2719	0	32614	35149	32805	33137	28115	
2720	0	32608	35969	32700	34329	30833	
2721	0	32484	35432	32698	35596	30962	
2722	0	32568	34260	32681	35767	29244	
2723	0	32720	31906	32503	35937	29103	
2724	0	33196	29465	32809	35349	34283	
2725	0	33432	28462	32882	32684	39237	
2726	0	33216	29810	32839	30230	42033	
2727	0	32771	32011	32752	29543	38643	
2728	0	32753	32592	32731	29597	35327	
2729	0	32581	32909	32629	30663	35069	
2730	0	32630	33177	32587	32317	34669	
2731	0	32713	33082	32645	32321	36706	
2732	0	32745	32367	32775	32568	40074	
2733	0	32530	31952	32717	32225	37222	
2734	0	32693	32221	32745	31916	29899	
2735	0	32832	32483	32760	32021	27265	
2736	0	32809	33159	32753	32753	37272	
2737	0	32674	33793	32685	33785	37414	
2738	0	32672	34166	32745	33844	25970	
2739	0	32624	34793	32791	33840	17389	
2740	0	32612	34999	32775	34203	19437	
2741	0	32605	35223	32765	33996	25367	
2742	0	32764	34707	32667	32979	31379	
2743	0	32942	33283	32795	32706	36359	
2744	0	32758	31622	32771	32506	38810	
2745	0	32730	30696	32839	32560	47396	
2746	0	32918	30130	32751	32533	44423	
2747	0	32952	29829	32556	32237	40283	
2748	0	33122	28673	32857	32665	32947	
2749	0	33080	28360	32751	33435	24880	
2750	0	32863	28454	32578	32734	26119	
2751	0	32805	29702	32829	32603	24921	
2752	0	32708	32151	32752	32671	32102	
2753	0	32804	35196	32586	32691	27192	
2754	0	32844	36871	32727	32406	24061	
2755	0	32837	37383	32701	32390	30897	
2756	0	32704	36851	32678	32413	29394	
2757	0	32756	34887	32632	32295	33280	
2758	0	33092	31571	32600	32900	42835	
2759	0	33187	28832	32490	33108	52871	
2760	0	33214	28295	32561	32728	47879	
2761	0	33080	29965	32760	32224	41461	
2762	0	33062	32263	32712	32080	24290	
2763	0	32934	33910	32490	31316	14619	
2764	0	33033	34394	32655	31687	17323	
2765	0	33039	34732	32552	32400	29789	
2766	0	33040	34482	32586	33184	39403	
2767	0	32917	33655	32558	34392	45731	
2768	0	33102	32587	32647	34954	38586	
2769	0	33008	32037	32759	35104	25947	
2770	0	32818	32512	32647	34861	25210	
2771	0	32722	33038	32726	33248	16266	
2772	0	32666	34140	32795	31430	16761	
2773	0	32480	34840	32749	30830	31384	
2774	0	32598	34247	32671	31383	36688	
2775	0	32603	32731	32801	32306	32498	
2776	0	32354	31370	32774	33773	36439	
2777	0	32386	31406	32763	34475	44772	
2778	0	32276	32366	33003	34107	44967	
2779	0	31938	33373	32997	34041	41792	
2780	0	31890	33692	33053	33928	34210	
2781	0	31760	33840	33027	34010	25548	
2782	0	31804	34311	32928	35128	29744	
2783	0	32317	34103	33070	33095	33946	
2784	0	32277	33163	33059	30966	31791	
2785	0	32390	31296	33159	31515	33198	
2786	0	32667	29988	32923	30614	35615	
2787	0	32757	30575	32615	31397	34453	
2788	0	32937	31199	32860	31894	37705	
2789	0	32882	31171	32753	31683	42498	
2790	0	32796	30561	32528	31736	37715	
2791	0	32862	30518	32743	32508	36951	
2792	0	33008	31394	32676	32336	31993	
2793	0	33104	32420	32470	32239	15088	
2794	0	33167	33305	32634	33541	9990	
2795	0	33046	34252	32710	33536	26115	
2796	0	32968	35937	32637	32869	39798	
2797	0	32931	36747	32685	33508	48221	
2798	0	32785	37142	32633	33615	42838	
2799	0	32632	37044	32706	32610	30933	
2800	0	32722	35920	32711	32615	28743	
2801	0	32893	34122	32609	33344	28919	
2802	0	33064	31751	32710	33735	25587	
2803	0	33152	29332	32653	33792	29103	
2804	0	33094	27709	32523	32711	33167	
2805	0	32916	26691	32749	31687	30780	
2806	0	32853	27480	32756	31476	36740	
2807	0	32792	29776	32563	31007	41961	
2808	0	32898	32677	32688	30695	34857	
2809	0	32808	34345	32703	30640	37256	
2810	0	32591	34583	32743	30994	42354	
2811	0	32504	33267	32703	31980	36749	
2812	0	32685	32435	32903	34384	41199	
2813	0	32860	32460	32839	36453	31765	
2814	0	32848	33094	32706	36744	12456	
2815	0	32987	34060	32684	35784	18706	
2816	0	32984	32899	32710	33720	29981	
2817	0	33073	31195	32754	31389	36766	
2818	0	33009	30403	32744	30560	38092	
2819	0	32978	29938	32832	30676	44176	
2820	0	32736	30539	32707	31424	36560	
2821	0	32492	31724	32608	31620	14845	
2822	0	32640	32765	32715	31767	6218	
2823	0	32630	33140	32749	32128	13893	
2824	0	32757	33064	32697	33185	31096	
2825	0	32955	33078	32825	34008	42930	
2826	0	32891	34263	32748	34887	46322	
2827	0	32874	35149	32599	34176	47503	
2828	0	32770	35504	32759	33400	46675	
2829	0	32706	35929	32711	32560	40016	
2830	0	32553	36346	32664	32103	34605	
2831	0	32573	36190	32717	32003	31963	
2832	0	32606	35407	32679	32507	32251	
2833	0	32582	33826	32807	32775	34239	
2834	0	32664	32221	32775	33634	32817	
2835	0	32745	30953	32557	34580	29985	
2836	0	33006	29703	32615	33875	30501	
2837	0	32946	29243	32613	32976	32187	
2838	0	33108	29015	32719	32477	31638	
2839	0	33272	30188	32699	32269	37425	
2840	0	33200	31636	32647	31852	43224	
2841	0	33147	32818	32634	31925	31136	
2842	0	32953	33705	32758	32160	15139	
2843	0	32640	34159	32720	32421	19597	
2844	0	32349	33946	32802	32301	28873	
2845	0	32305	33705	32805	31943	39774	
2846	0	32333	33799	32600	31813	38631	
2847	0	32551	33495	32756	32793	38790	
2848	0	32456	33797	32791	33208	33056	
2849	0	32610	33119	32646	34145	31748	
2850	0	32717	32532	32789	34676	41984	
2851	0	33016	32425	32674	35680	46760	
2852	0	33052	32063	32557	34867	45063	
2853	0	32919	32130	32796	32327	41697	
2854	0	32606	32789	32616	31380	29805	
2855	0	32648	33949	32585	30516	8735	
2856	0	32650	35077	32839	29925	6915	
2857	0	32712	35163	32809	30786	18239	
2858	0	32662	33130	32646	32467	30179	
2859	0	32598	29785	32872	33606	35009	
2860	0	32612	27347	32809	35387	34101	
2861	0	32848	27183	32680	36236	36585	
2862	0	32976	29175	32662	35120	38087	
2863	0	33105	31663	32832	33581	39878	
2864	0	33045	33403	32752	31489	40691	
2865	0	32903	33786	32711	31182	32176	
2866	0	32853	33125	32593	30464	31041	
2867	0	32912	32763	32775	30073	32465	
2868	0	32739	33261	32815	31283	31931	
2869	0	32824	33659	32571	32860	32890	
2870	0	32849	33760	32805	34570	27943	
2871	0	32786	33380	32797	35673	29807	
2872	0	32713	33826	32649	35392	37997	
2873	0	32788	35057	32747	34067	46418	
2874	0	32726	35759	32731	32890	47458	
2875	0	32575	35585	32775	31501	42907	
2876	0	32632	34432	32656	30785	39227	
2877	0	32780	32361	32711	31874	30215	
2878	0	32930	29390	32841	32110	25129	
2879	0	33212	27555	32805	32004	22095	
2880	0	33056	27045	32822	31535	17752	
2881	0	32819	28023	32717	31647	15108	
2882	0	32882	30309	32775	31626	22688	
2883	0	32843	33369	32604	32089	31406	
2884	0	32715	35024	32718	32443	35715	
2885	0	32743	35805	32690	33407	32455	
2886	0	32741	35996	32592	34653	34653	
2887	0	32550	35970	32687	35659	39530	
2888	0	32507	36328	32687	35847	44656	
2889	0	32705	35011	32816	34322	48757	
2890	0	32704	31251	32805	31840	48870	
2891	0	32865	27546	32627	29641	41640	
2892	0	32838	25847	32876	29784	28538	
2893	0	32789	27124	32815	31720	17380	
2894	0	32890	29593	32653	31884	6565	
2895	0	32840	32288	32745	32258	14037	
2896	0	32786	34085	32771	32728	26726	
2897	0	32733	35353	32809	33479	39219	
2898	0	32807	36010	32812	33799	37503	
2899	0	32802	36502	32775	34019	40455	
2900	0	32672	36053	32818	33172	44743	
2901	0	32675	35003	32675	32518	45334	
2902	0	32596	34208	32610	32454	40667	
2903	0	32452	33046	32744	32247	27402	
2904	0	32583	32945	32697	32557	24108	
2905	0	32824	33128	32604	34098	34843	
2906	0	32914	33518	32672	34893	47808	
2907	0	33020	33765	32808	34209	54274	
2908	0	32944	34045	32809	32578	48167	
2909	0	32900	34311	32748	32064	25448	
2910	0	32930	34116	32732	31565	4030	
2911	0	32922	33282	32775	31763	2069	
2912	0	32808	32472	32656	33590	6062	
2913	0	32668	30584	32688	35355	27649	
2914	0	32752	29294	32608	36139	45592	
2915	0	32753	30087	32827	34013	41444	
2916	0	32716	31606	32757	31440	38754	
2917	0	32594	32911	32592	32398	38992	
2918	0	32679	34119	32805	31873	37377	
2919	0	32673	33849	32775	32145	37010	
2920	0	32710	32775	32598	31519	40145	
2921	0	32877	31228	32749	31059	37733	
2922	0	32953	30313	32624	31559	27991	
2923	0	33037	30533	32544	32992	33635	
2924	0	32960	31685	32623	32691	32932	
2925	0	32830	32959	32771	32958	21942	
2926	0	32626	33536	32672	32868	26778	
2927	0	32499	33694	32797	33039	32963	
2928	0	32690	33314	32701	33263	31371	
2929	0	32995	33647	32531	32978	30849	
2930	0	32931	33831	32772	32495	35106	
2931	0	32852	34699	32694	32055	34479	
2932	0	32716	33706	32498	32015	31226	
2933	0	32667	31433	32739	32219	36800	
2934	0	32584	29767	32691	32661	39176	
2935	0	32937	28597	32617	32937	44862	
2936	0	32920	29047	32843	33040	51615	
2937	0	32726	30656	32824	32917	46791	
2938	0	32536	32813	32720	32449	41165	
2939	0	32625	34463	32858	32240	31781	
2940	0	32818	34480	32852	32071	20900	
2941	0	33145	33940	32664	32343	16837	
2942	0	32855	32726	32801	32663	23123	
2943	0	32677	32357	32755	32994	19321	
2944	0	32826	32924	32662	33754	12112	
2945	0	32784	33858	32621	33358	21214	
2946	0	32711	34739	32659	32845	27535	
2947	0	32740	34591	32685	32263	28058	
2948	0	32936	34770	32775	32465	31763	
2949	0	32902	35078	32828	33719	33287	
2950	0	32634	34012	32729	34121	36645	
2951	0	32620	32418	32737	34006	42479	
2952	0	32619	30191	32738	33261	45818	
2953	0	32544	28846	32815	32506	47961	
2954	0	32560	29938	32863	31210	44979	
2955	0	32851	31734	32869	30923	41095	
2956	0	32936	32676	32775	30199	39477	
2957	0	33037	33799	32724	31394	31930	
2958	0	32966	33775	32599	34013	29676	
2959	0	32848	32237	32705	36410	21840	
2960	0	32836	31026	32871	37767	22076	
2961	0	32861	29959	32856	37259	33091	
2962	0	32775	29561	32644	34400	35990	
2963	0	32665	30167	32650	31239	39762	
2964	0	32672	31885	32744	30322	35846	
2965	0	32604	33748	32785	29780	20718	
2966	0	32530	34463	32640	29664	20064	
2967	0	32602	35377	32675	30334	31303	
2968	0	32612	35318	32669	31455	37213	
2969	0	32624	35110	32595	33122	42326	
2970	0	32602	34591	32708	35636	37092	
2971	0	32678	33554	32822	36073	37353	
2972	0	32758	32939	32823	34717	39712	
2973	0	32844	32344	32837	33605	28019	
2974	0	32880	31890	32785	31977	13284	
2975	0	32878	31930	32753	30642	20160	
2976	0	32858	32445	32744	30598	34067	
2977	0	32809	33035	32723	31551	38483	
2978	0	32757	33383	32799	32045	32966	
2979	0	32762	33330	32725	32691	33861	
2980	0	32722	31725	32805	32571	34690	
2981	0	32688	30424	32893	32374	37336	
2982	0	32936	29866	32691	32973	47352	
2983	0	32938	30848	32877	33746	39688	
2984	0	32880	32559	32803	33069	29298	
2985	0	32876	33972	32707	33666	26266	
2986	0	32845	34006	32695	35061	26864	
2987	0	32877	33339	32758	35103	33114	
2988	0	32925	33309	32701	33558	33523	
2989	0	32963	33515	32589	32067	32573	
2990	0	32704	33816	32555	31395	30599	
2991	0	32617	33963	32809	31389	32189	
2992	0	32700	33425	32824	31528	39090	
2993	0	32812	33646	32640	31624	40739	
2994	0	32853	33323	32621	31239	35334	
2995	0	32775	33235	32688	31843	38085	
2996	0	32500	32297	32799	32288	36302	
2997	0	32708	31239	32752	32934	26613	
2998	0	32853	30575	32707	33910	28887	
2999	0	33156	29963	32825	34696	24696	
3000	0	33117	29922	32725	33636	13084	
3001	0	32896	30999	32603	31045	18673	
3002	0	32896	31967	32576	29760	18121	
3003	0	32960	32493	32610	30589	29113	
3004	0	32856	33287	32576	31856	42992	
3005	0	32512	33843	32632	32589	44538	
3006	0	32486	33922	32711	34562	37581	
3007	0	32285	34258	32677	36539	35335	
3008	0	32269	34183	32717	36619	44395	
3009	0	32484	34191	32673	35151	45479	
3010	0	32525	33517	32755	33601	40221	
3011	0	32520	32583	32718	32770	41744	
3012	0	32686	31352	32537	31220	40602	
3013	0	32905	31391	32724	30259	36835	
3014	0	32796	32677	32768	31737	29145	
3015	0	32752	34943	32620	33477	17858	
3016	0	32632	35375	32775	34958	10417	
3017	0	32765	33604	32763	35218	22819	
3018	0	33032	31680	32681	35176	37195	
3019	0	33160	30328	32743	34532	44644	
3020	0	32995	30809	32722	32330	39760	
3021	0	32890	31701	32775	29940	41363	
3022	0	32938	32807	32758	28951	39332	
3023	0	32928	33003	32663	29391	30916	
3024	0	32969	31742	32775	30775	23948	
3025	0	33033	30670	32792	32727	13581	
3026	0	32788	30304	32643	34187	20068	
3027	0	32628	30754	32733	35043	40112	
3028	0	32799	31393	32749	34179	44871	
3029	0	32842	32549	32583	33176	45090	
3030	0	32775	33848	32618	32032	39872	
3031	0	32772	35204	32632	31938	22162	
3032	0	32648	35967	32660	31974	20430	
3033	0	32508	35864	32637	31751	31522	
3034	0	32608	35692	32594	32009	33315	
3035	0	32626	34322	32682	33020	30226	
3036	0	32701	33470	32735	33320	41549	
3037	0	32996	32465	32682	32809	38679	
3038	0	33028	31487	32870	33097	36999	
3039	0	33012	31175	32829	33263	34162	
3040	0	32966	31195	32648	33344	26814	
3041	0	32674	30843	32819	33477	18897	
3042	0	32452	31606	32802	33422	24809	
3043	0	32620	32322	32591	32872	33789	
3044	0	32680	32855	32611	32108	26592	
3045	0	32668	33636	32635	31532	21149	
3046	0	32738	33287	32568	32028	35118	
3047	0	32853	31896	32833	32608	44941	
3048	0	32846	30473	32925	32312	42087	
3049	0	32700	30431	32766	31815	41264	
3050	0	32775	30697	32693	32065	47501	
3051	0	32866	31391	32745	32557	47186	
3052	0	33212	32313	32647	33474	49242	
3053	0	33160	33277	32690	33428	47027	
3054	0	33010	34762	32744	32938	23420	
3055	0	32785	35218	32656	33283	77	
3056	0	32667	35151	32903	33381	2571	
3057	0	32604	33168	32796	33272	15181	
3058	0	32498	31402	32752	34091	29543	
3059	0	32448	30557	32752	34763	38584	
3060	0	32613	30522	32614	34451	42386	
3061	0	32684	31845	32705	32845	44763	
3062	0	32710	33625	32647	30997	42883	
3063	0	32680	34347	32736	31919	39721	
3064	0	32946	34910	32713	33939	36689	
3065	0	32972	34790	32722	32869	33470	
3066	0	32832	34110	32466	32163	31478	
3067	0	32614	33035	32583	31410	33931	
3068	0	32409	31744	32556	31843	29191	
3069	0	32720	31334	32744	32583	22135	
3070	0	32809	31988	32613	32872	27036	
3071	0	32816	32587	32763	32864	36802	
3072	0	32768	33447	32612	33112	45895	
3073	0	32376	33666	32827	34271	46815	
3074	0	32473	32829	32727	35815	42486	
3075	0	32898	31355	32912	35672	38269	
3076	0	32996	30936	32844	33966	17350	
3077	0	33062	31661	32666	31642	16155	
3078	0	33051	33115	32688	29993	22480	
3079	0	33055	34183	32621	30682	32359	
3080	0	33050	35143	32743	31862	32532	
3081	0	32924	35973	32641	32407	27967	
3082	0	32862	35818	32665	32975	33988	
3083	0	32786	34302	32619	33635	34637	
3084	0	32729	32326	32755	34164	32245	
3085	0	32784	30247	32640	33721	36526	
3086	0	32752	29131	32785	32647	32939	
3087	0	32767	28883	32711	32189	23654	
3088	0	32899	29561	32805	32065	22879	
3089	0	32845	31434	32724	31575	30482	
3090	0	32859	33821	32807	31600	42283	
3091	0	32775	34658	32697	31909	44723	
3092	0	32624	34644	32743	32323	44458	
3093	0	32561	34555	32642	32519	43379	
3094	0	32642	33718	32661	32225	44022	
3095	0	32656	32279	32624	32171	45221	
3096	0	32544	30346	32803	32128	35130	
3097	0	32664	29334	32688	32073	19848	
3098	0	32804	29550	32785	31800	8739	
3099	0	32879	29983	32591	32577	16202	
3100	0	32775	31544	32775	33082	25639	
3101	0	32805	34067	32647	33062	33192	
3102	0	32985	36530	32823	32843	36409	
3103	0	32849	38479	32821	32629	37069	
3104	0	32720	38006	32763	33686	35387	
3105	0	32804	36019	32648	33953	38493	
3106	0	32839	33158	32739	33833	40261	
3107	0	32920	29947	32605	33664	35032	
3108	0	33184	27154	32661	32365	31826	
3109	0	33158	25427	32631	32237	31591	
3110	0	32884	25048	32723	31650	35742	
3111	0	32630	25988	32544	31264	36961	
3112	0	32736	28135	32736	32492	25320	
3113	0	32753	30813	32708	34295	21744	
3114	0	32685	33903	32784	35939	29204	
3115	0	32548	35898	32755	35658	41520	
3116	0	32606	36403	32761	33831	44419	
3117	0	32770	36563	32685	32064	41648	
3118	0	32722	36134	32725	31425	39851	
3119	0	32626	35740	32749	31797	29520	
3120	0	32448	35527	32745	32775	20620	
3121	0	32557	35331	32809	33183	23143	
3122	0	32505	34962	32755	32573	28263	
3123	0	32699	34442	32767	32501	23290	
3124	0	32754	34311	32775	32544	25952	
3125	0	32688	33723	32736	32502	39456	
3126	0	32804	33006	32696	32753	40570	
3127	0	32839	32502	32797	33387	29467	
3128	0	32920	32535	32771	34159	26629	
3129	0	33098	32886	32614	34107	34848	
3130	0	33210	32566	32696	32743	44797	
3131	0	32976	32205	32613	31887	44283	
3132	0	32711	31501	32775	32295	35271	
3133	0	32632	30719	32678	32142	41248	
3134	0	32680	31213	32724	31442	26014	
3135	0	32805	32582	32793	31811	16789	
3136	0	32669	33335	32668	33008	23269	
3137	0	32693	33467	32824	34262	25674	
3138	0	32801	32825	32690	34034	21442	
3139	0	32756	32323	32789	32612	29746	
3140	0	32800	32095	32718	30972	38714	
3141	0	32658	32137	32755	30033	40417	
3142	0	32686	31591	32583	30439	38576	
3143	0	32834	30744	32724	32146	47060	
3144	0	33224	30487	32633	33226	55215	
3145	0	33104	31001	32651	34627	47725	
3146	0	32922	31559	32543	34733	43847	
3147	0	32836	32249	32648	33716	33933	
3148	0	32725	33196	32729	33799	22870	
3149	0	32546	34256	32692	32817	13252	
3150	0	32456	35186	32833	32301	9554	
3151	0	32522	35009	32791	33459	16074	
3152	0	32784	34290	32610	34747	25774	
3153	0	32852	33424	32775	32954	37020	
3154	0	32726	32921	32597	31849	39687	
3155	0	32882	33502	32710	32149	34285	
3156	0	33024	34113	32732	32335	28014	
3157	0	32717	34546	32829	32045	28287	
3158	0	32656	33679	32757	31635	29895	
3159	0	32752	32634	32730	31740	33337	
3160	0	32818	31104	32853	31986	37573	
3161	0	32903	29736	32749	32980	40965	
3162	0	32680	28875	32745	33522	41917	
3163	0	32838	28761	32611	33767	40799	
3164	0	32654	30331	32737	33507	36313	
3165	0	32676	32479	32655	33864	38369	
3166	0	32623	33947	32727	33287	41175	
3167	0	32946	34107	32673	32711	33973	
3168	0	33095	32570	32768	33059	31015	
3169	0	32886	31111	32681	33105	29093	
3170	0	32659	30957	32603	33735	29462	
