# OpenSignals Text File Format
# {"00:07:80:3B:46:63": {"sensor": ["EMG", "EMG", "EMG", "EMG", "EMG"], "device name": "00:07:80:3B:46:63", "column": ["nSeq", "DI", "CH1", "CH2", "CH3", "CH4", "CH5"], "sync interval": 2, "time": "8:50:7.605", "comments": "", "device connection": "BTH00:07:80:3B:46:63", "channels": [1, 2, 3, 4, 5], "date": "2017-4-28", "mode": 0, "digital IO": [0, 1], "firmware version": 770, "device": "biosignalsplux", "position": 0, "sampling rate": 1000, "label": ["CH1", "CH2", "CH3", "CH4", "CH5"], "resolution": [16, 16, 16, 16, 16], "special": [{}, {}, {}, {}, {}]}}
# EndOfHeader
0	0	32681	32717	33863	32663	32765	
1	0	32416	32548	34371	32711	32891	
2	0	32140	32583	34997	32775	32985	
3	0	31977	32602	34623	32867	32895	
4	0	32032	32797	34015	32775	32803	
5	0	32306	32775	32995	32775	33125	
6	0	32507	32605	30811	32807	32937	
7	0	32767	32611	31111	32829	32857	
8	0	32711	32667	32915	32801	33091	
9	0	32645	32690	33536	32727	32957	
10	0	32523	32699	33391	32749	32899	
11	0	32361	32675	33345	32711	32704	
12	0	32219	32566	33851	32799	32817	
13	0	32403	32507	34015	32703	32909	
14	0	32607	32704	33625	32807	32855	
15	0	32966	32707	32993	32825	32656	
16	0	32851	32667	33039	32793	32691	
17	0	32858	32751	33139	32769	32881	
18	0	32850	32677	32377	32724	32797	
19	0	32692	32417	31359	32775	32653	
20	0	32722	32573	31775	32699	32749	
21	0	32908	32735	33223	32821	32854	
22	0	33298	32739	33675	32775	32813	
23	0	33206	32647	34359	32735	32643	
24	0	32792	32583	34738	32725	32891	
25	0	32468	32606	34731	32713	32887	
26	0	32322	32699	32500	32861	32677	
27	0	32564	32775	31559	32789	32813	
28	0	33207	32706	32143	32921	32915	
29	0	33405	32639	33446	32775	32948	
30	0	33458	32623	30941	32903	32746	
31	0	33301	32539	27024	32737	32967	
32	0	33032	32483	25755	32865	32894	
33	0	32857	32545	28672	32694	32827	
34	0	32809	32755	31896	32875	32889	
35	0	32981	32824	33617	32845	33040	
36	0	33501	32707	34268	32775	32891	
37	0	33548	32687	34663	32775	32821	
38	0	33122	32635	34695	32711	32971	
39	0	32766	32647	34387	32827	32957	
40	0	32506	32674	34087	32830	32807	
41	0	32396	32675	34301	32803	33079	
42	0	32261	32633	34294	32839	32775	
43	0	32368	32609	33947	32847	32953	
44	0	32309	32573	34096	32775	33043	
45	0	32030	32445	33511	32849	32931	
46	0	31764	32491	33047	32737	32723	
47	0	31716	32775	31995	32903	32871	
48	0	31908	32711	31593	32763	32793	
49	0	32690	32614	32263	32809	32749	
50	0	33371	32626	32797	32798	32681	
51	0	33530	32702	32569	32681	32890	
52	0	33936	32813	32710	32749	32853	
53	0	34004	32747	33466	32659	32751	
54	0	33842	32659	33195	32775	32646	
55	0	33567	32569	31953	32683	32907	
56	0	33241	32503	31333	32873	32802	
57	0	32711	32573	32643	32733	32690	
58	0	32143	32775	34023	32875	32882	
59	0	31967	32677	33895	32839	32775	
60	0	31832	32697	33849	32839	32763	
61	0	31915	32606	32583	32827	32869	
62	0	32009	32535	32375	32758	32669	
63	0	31961	32721	32719	32793	32723	
64	0	32018	32711	32227	32687	32937	
65	0	32092	32809	30958	32839	32737	
66	0	32649	32609	30231	32759	32825	
67	0	33013	32613	29227	32868	32919	
68	0	33886	32531	30999	32765	32696	
69	0	35168	32760	32727	32747	32729	
70	0	35346	32647	33110	32775	32795	
71	0	35027	32621	32231	32722	32997	
72	0	34062	32765	31930	32827	32889	
73	0	32577	32722	31787	32823	32705	
74	0	31672	32527	33334	32773	32922	
75	0	31301	32544	34535	32745	32953	
76	0	31643	32854	34670	32705	32745	
77	0	31279	32739	34739	32774	32743	
78	0	31657	32583	35015	32663	33024	
79	0	32507	32530	34907	32743	32827	
80	0	33287	32461	33503	32759	32747	
81	0	33904	32591	31977	32807	32915	
82	0	33218	32664	30166	32831	33046	
83	0	32922	32627	29991	32677	32941	
84	0	33336	32633	31507	32903	32772	
85	0	33554	32855	33287	32832	32955	
86	0	33089	32879	33683	32760	32931	
87	0	32672	32743	33764	32803	32775	
88	0	32576	32662	32623	32731	33031	
89	0	32285	32561	32354	32915	33047	
90	0	32239	32652	32539	32849	32981	
91	0	32450	32678	32666	32829	32803	
92	0	32694	32583	32839	32835	33064	
93	0	32839	32647	33732	32753	32871	
94	0	32716	32645	33901	32850	32739	
95	0	32616	32722	33862	32822	33043	
96	0	32728	32725	33983	32802	32877	
97	0	32909	32639	33325	32823	32711	
98	0	32996	32719	32519	32767	32875	
99	0	32892	32721	31469	32919	32898	
100	0	32757	32553	30699	32863	32670	
101	0	32677	32367	31677	32928	32869	
102	0	32861	32485	32615	32825	32735	
103	0	32880	32672	32343	32895	32861	
104	0	32864	32771	32722	32795	32747	
105	0	32876	32902	32720	32758	32977	
106	0	32765	32902	33311	32767	32699	
107	0	32775	32775	33987	32789	32922	
108	0	32563	32675	33825	32631	32728	
109	0	32352	32695	33117	32807	32662	
110	0	32082	32599	32165	32719	32871	
111	0	32045	32475	31259	32918	32762	
112	0	32355	32383	31680	32887	32845	
113	0	32440	32263	32452	32927	32889	
114	0	32571	32377	31977	32893	32675	
115	0	32568	32489	31879	32853	32941	
116	0	32579	32629	32190	32775	32916	
117	0	32835	32735	32775	32775	32759	
118	0	33061	32711	32981	32691	32875	
119	0	33042	32563	32291	32615	32978	
120	0	33007	32627	32805	32600	32858	
121	0	32715	32687	33647	32535	32824	
122	0	32481	32849	33635	32642	33029	
123	0	32713	32797	33347	32550	32790	
124	0	32583	32812	33467	32681	32867	
125	0	32512	32770	33243	32618	32881	
126	0	32527	32800	32595	32753	32656	
127	0	32604	32803	32579	32663	32721	
128	0	32585	32707	32966	32743	32943	
129	0	32436	32655	33165	32702	32765	
130	0	32432	32711	33306	32767	32807	
131	0	32635	32687	34087	32771	32875	
132	0	32784	32695	34673	32767	32651	
133	0	32889	32819	35794	32848	32825	
134	0	33069	32875	36359	32850	32824	
135	0	33456	32775	35074	32861	32706	
136	0	33573	32477	30382	32847	32799	
137	0	33408	32515	27565	32925	32931	
138	0	33362	32566	28188	32747	32684	
139	0	33232	32757	30264	32952	32917	
140	0	32804	32723	31330	32857	32807	
141	0	32280	32630	31463	32890	32831	
142	0	32154	32518	29763	32729	32971	
143	0	32362	32545	29607	32933	32759	
144	0	32346	32569	32180	32677	32997	
145	0	32328	32608	33415	32791	32711	
146	0	32457	32775	32414	32735	32903	
147	0	32826	32597	32804	32851	32995	
148	0	33672	32639	34435	32706	32829	
149	0	34191	32577	35328	32745	32967	
150	0	34322	32806	35015	32689	32859	
151	0	33936	32791	33550	32839	32738	
152	0	33477	32761	32809	32739	32951	
153	0	33168	32655	32935	32839	32739	
154	0	32649	32548	33179	32839	33025	
155	0	31969	32637	33475	32829	32813	
156	0	31683	32646	33620	32861	32973	
157	0	31501	32557	33671	32801	32758	
158	0	31387	32419	33379	32929	32877	
159	0	31520	32658	32186	32809	32879	
160	0	32123	32760	32327	32967	32741	
161	0	32656	32725	32675	32847	32967	
162	0	33157	32647	32689	32883	32789	
163	0	33722	32707	31962	32827	32775	
164	0	34074	32727	32185	32775	32948	
165	0	34087	32727	32320	32770	32679	
166	0	33811	32675	33503	32761	32631	
167	0	33628	32641	33821	32775	32865	
168	0	33334	32599	34009	32729	32947	
169	0	33153	32491	33391	32827	32634	
170	0	32998	32453	31337	32736	32883	
171	0	32602	32621	31431	32711	32937	
172	0	32005	32632	32829	32655	32789	
173	0	31868	32741	33131	32725	32691	
174	0	32037	32795	33222	32645	32837	
175	0	32393	32820	32672	32759	32943	
176	0	32355	32755	32412	32717	32745	
177	0	32259	32589	31963	32695	32815	
178	0	32352	32623	32775	32677	32955	
179	0	32526	32679	33452	32775	32755	
180	0	32681	32569	33999	32734	33001	
181	0	32745	32471	33583	32833	32837	
182	0	32912	32515	33191	32759	32757	
183	0	33032	32609	32667	32833	32933	
184	0	32921	32757	32812	32727	32923	
185	0	32685	32717	33175	32899	32775	
186	0	32617	32667	32237	32819	32809	
187	0	32503	32726	31350	32903	32775	
188	0	32349	32711	31675	32774	32913	
189	0	32308	32709	30991	32803	32833	
190	0	32082	32571	31443	32775	32875	
191	0	32064	32635	32859	32831	32903	
192	0	31829	32631	32577	32818	32647	
193	0	32101	32615	32500	32903	32863	
194	0	32965	32599	33373	32857	32643	
195	0	33953	32493	32057	32876	32948	
196	0	34482	32582	30151	32699	32723	
197	0	34946	32698	30963	32818	32921	
198	0	34823	32647	33530	32735	32681	
199	0	33370	32647	34407	32736	32952	
200	0	32428	32626	34209	32633	32717	
201	0	32224	32775	34397	32710	33005	
202	0	32248	32709	34009	32741	32741	
203	0	32316	32575	33171	32727	32803	
204	0	32917	32733	32263	32718	32923	
205	0	33492	32663	31833	32655	32859	
206	0	33096	32535	32001	32767	32670	
207	0	32484	32567	33287	32689	32973	
208	0	32031	32566	32659	32889	32967	
209	0	32016	32711	31459	32735	32735	
210	0	32532	32775	32143	32887	32907	
211	0	32933	32738	33041	32711	32989	
212	0	32951	32694	33303	32833	32789	
213	0	32929	32609	33385	32849	32922	
214	0	32928	32598	32685	32786	32892	
215	0	32775	32642	33062	32820	32827	
216	0	32760	32683	33607	32807	33035	
217	0	32774	32591	33351	32829	32839	
218	0	32896	32541	32919	32882	32899	
219	0	32765	32574	32455	32829	32909	
220	0	32583	32687	31815	32878	32943	
221	0	32272	32534	31846	32833	32775	
222	0	32113	32467	32759	32839	32933	
223	0	32071	32531	32855	32823	32865	
224	0	32071	32695	32443	32775	32677	
225	0	32237	32667	32351	32891	32683	
226	0	32549	32601	33044	32815	32863	
227	0	32818	32674	34159	32875	32757	
228	0	32884	32595	34642	32793	32726	
229	0	33107	32621	33933	32805	32861	
230	0	33520	32747	33435	32815	32889	
231	0	33743	32833	33407	32803	32665	
232	0	33574	32730	32630	32894	32903	
233	0	33379	32705	29878	32845	32805	
234	0	33084	32667	29634	32913	32667	
235	0	33215	32685	29325	32829	32903	
236	0	33211	32803	30147	32873	32669	
237	0	32804	32631	31737	32801	32753	
238	0	32598	32507	33215	32736	32763	
239	0	32546	32602	34019	32759	32599	
240	0	32327	32671	35279	32655	32918	
241	0	32326	32723	35628	32775	32775	
242	0	32508	32738	34611	32773	32863	
243	0	32599	32573	33600	32672	32957	
244	0	32688	32559	34551	32647	32799	
245	0	32672	32717	34789	32630	32941	
246	0	32784	32751	34586	32729	33093	
247	0	32893	32607	31448	32647	32978	
248	0	32419	32467	29077	32891	32887	
249	0	31732	32691	28834	32818	33083	
250	0	31513	32687	30861	32829	33068	
251	0	31780	32719	31557	32751	32833	
252	0	31940	32699	30471	32665	33065	
253	0	32618	32739	30407	32855	32898	
254	0	33489	32827	32063	32795	32691	
255	0	34432	32706	33907	32739	32843	
256	0	34562	32620	34567	32763	32621	
257	0	33765	32733	35109	32758	32870	
258	0	33098	32726	35199	32647	32627	
259	0	32808	32662	35671	32775	32603	
260	0	32611	32659	35181	32773	32911	
261	0	32131	32801	33363	32835	32871	
262	0	32300	32747	32077	32805	32927	
263	0	33001	32609	32263	32751	32787	
264	0	33299	32563	30904	32773	32795	
265	0	33799	32547	28635	32743	32855	
266	0	34251	32690	30157	32831	32907	
267	0	33612	32726	30757	32775	32933	
268	0	32664	32706	31729	32825	32775	
269	0	32129	32669	32987	32690	32709	
270	0	32071	32753	33879	32893	32879	
271	0	32191	32648	34164	32815	32763	
272	0	32225	32473	35126	32787	32651	
273	0	32579	32575	34651	32787	32719	
274	0	33240	32751	34742	32775	32924	
275	0	33414	32742	34594	32775	32746	
276	0	33032	32733	33757	32767	33005	
277	0	32330	32729	32159	32891	32878	
278	0	31843	32673	31295	32807	32846	
279	0	31878	32439	31097	32869	32787	
280	0	32339	32327	31613	32799	32928	
281	0	33095	32604	31289	32739	32959	
282	0	32943	32655	31643	32768	32999	
283	0	32646	32647	32563	32741	32821	
284	0	32880	32675	32590	32812	32987	
285	0	33001	32667	32515	32709	32903	
286	0	32594	32735	33312	32775	32769	
287	0	32240	32735	33557	32832	32961	
288	0	32448	32511	33695	32775	32955	
289	0	32774	32615	33895	32824	32855	
290	0	32896	32759	33731	32762	32858	
291	0	33161	32676	32597	32895	32759	
292	0	33112	32613	31983	32809	32857	
293	0	33223	32695	31681	32871	32687	
294	0	33142	32621	31959	32865	32882	
295	0	33061	32517	32249	32759	32699	
296	0	32885	32635	32023	32775	32959	
297	0	32603	32610	32315	32726	32791	
298	0	32406	32615	33306	32801	32731	
299	0	32589	32717	34093	32743	32839	
300	0	32538	32541	34015	32701	33023	
301	0	32647	32583	33491	32763	32731	
302	0	32659	32495	33223	32765	32911	
303	0	32620	32679	33063	32703	32858	
304	0	32735	32677	33575	32803	32831	
305	0	32568	32687	32693	32813	32967	
306	0	32637	32770	32313	32711	32975	
307	0	32775	32759	33469	32803	32697	
308	0	32952	32743	34870	32711	32883	
309	0	32765	32533	35325	32807	32887	
310	0	32515	32583	34063	32739	32722	
311	0	32694	32544	32037	32949	32940	
312	0	32824	32527	31431	32827	32955	
313	0	32809	32703	31339	32911	32775	
314	0	32608	32666	29521	32891	32765	
315	0	32594	32667	29949	32860	33011	
316	0	32644	32749	30464	32871	32880	
317	0	32870	32775	31525	32775	32762	
318	0	32992	32675	31538	32925	32811	
319	0	32818	32635	31469	32805	32961	
320	0	32566	32407	31099	32859	32935	
321	0	32315	32498	32390	32749	32767	
322	0	32081	32685	32445	32699	32671	
323	0	31908	32707	32577	32803	33011	
324	0	32403	32673	33087	32716	32957	
325	0	33220	32583	33824	32652	32899	
326	0	33726	32503	33963	32739	32771	
327	0	33624	32559	33187	32735	32903	
328	0	33159	32775	33538	32623	33083	
329	0	32997	32769	34594	32774	32957	
330	0	32973	32857	35155	32681	32775	
331	0	32908	32679	34143	32837	32823	
332	0	32548	32623	33041	32875	32999	
333	0	32240	32699	33004	32775	32966	
334	0	32247	32743	32749	32775	32702	
335	0	32608	32549	32359	32757	32914	
336	0	32896	32505	32377	32877	32933	
337	0	33172	32571	31743	32775	32707	
338	0	34082	32670	31285	32867	32741	
339	0	34744	32728	32312	32775	32957	
340	0	34654	32762	32445	32687	32966	
341	0	34212	32792	32411	32775	32789	
342	0	33851	32620	32617	32677	32711	
343	0	32834	32551	32003	32801	32826	
344	0	32018	32717	32445	32699	32937	
345	0	31676	32656	32696	32688	32928	
346	0	31890	32654	33331	32806	32821	
347	0	32092	32661	34231	32759	32677	
348	0	31908	32595	33978	32825	32839	
349	0	31957	32425	33636	32857	32937	
350	0	32297	32442	34355	32887	32864	
351	0	32443	32815	33713	32809	32799	
352	0	32418	32836	32545	32775	32775	
353	0	32644	32694	31827	32775	33075	
354	0	32767	32703	31655	32709	32983	
355	0	32360	32679	32228	32773	32757	
356	0	31941	32561	32898	32737	32775	
357	0	32055	32631	32038	32631	32820	
358	0	32472	32705	31571	32764	32943	
359	0	32761	32727	32259	32775	32993	
360	0	33031	32685	32531	32735	32935	
361	0	32875	32671	32564	32825	32793	
362	0	32408	32581	32133	32787	32701	
363	0	32807	32574	31936	32711	32873	
364	0	33780	32789	32895	32831	32873	
365	0	34212	32758	32707	32775	32827	
366	0	34049	32671	32205	32775	32827	
367	0	33324	32631	32741	32711	32646	
368	0	32649	32727	33503	32687	32694	
369	0	32327	32533	33926	32815	32902	
370	0	32160	32431	33093	32757	32835	
371	0	32224	32631	32461	32877	32747	
372	0	32354	32579	32195	32839	32885	
373	0	32527	32610	32927	32809	32903	
374	0	32801	32675	33303	32891	32775	
375	0	32786	32567	33680	32898	32873	
376	0	32775	32489	33607	32809	32855	
377	0	32803	32831	32909	32825	32775	
378	0	32822	32761	32855	32812	32890	
379	0	32526	32709	33065	32851	32741	
380	0	32477	32677	33127	32765	32980	
381	0	32359	32715	33965	32873	32934	
382	0	32263	32555	35136	32880	32647	
383	0	32345	32461	32583	32941	32912	
384	0	32308	32539	31044	32775	32813	
385	0	32412	32586	30676	32882	32683	
386	0	32500	32593	31407	32849	32656	
387	0	32847	32809	31451	32819	32717	
388	0	32882	32813	32150	32807	32755	
389	0	33026	32755	33369	32711	32966	
390	0	33539	32685	33440	32847	32757	
391	0	33702	32541	32069	32767	32809	
392	0	33967	32661	31225	32743	32951	
393	0	34700	32634	31653	32699	32966	
394	0	34605	32598	32319	32694	32722	
395	0	33763	32743	32198	32765	32895	
396	0	32787	32709	31325	32657	32967	
397	0	32349	32818	31575	32775	32795	
398	0	32098	32685	32615	32757	32791	
399	0	32179	32469	33216	32679	32971	
400	0	32515	32563	33379	32727	32829	
401	0	33005	32685	33401	32666	32827	
402	0	32774	32679	33765	32711	32999	
403	0	32390	32626	33719	32681	32813	
404	0	32320	32669	33407	32767	32765	
405	0	32333	32702	33339	32698	32987	
406	0	32391	32677	33389	32803	32711	
407	0	32459	32755	33607	32767	32853	
408	0	32425	32583	33886	32833	32987	
409	0	32386	32425	33735	32775	32825	
410	0	32515	32502	32917	32861	32695	
411	0	32786	32690	33503	32831	32728	
412	0	32740	32643	33759	32903	32903	
413	0	32696	32667	34183	32882	32959	
414	0	32703	32694	34582	32847	32911	
415	0	32725	32469	33309	32869	32773	
416	0	32757	32443	32013	32741	33042	
417	0	32527	32619	32455	32807	32927	
418	0	32409	32619	32039	32767	32775	
419	0	32467	32495	30669	32825	32791	
420	0	32450	32741	29027	32747	32815	
421	0	32688	32709	28971	32831	32985	
422	0	33082	32659	30775	32707	32690	
423	0	33101	32659	32839	32699	32933	
424	0	32965	32839	32935	32722	32859	
425	0	32795	32791	32919	32726	32627	
426	0	32708	32583	32535	32819	32632	
427	0	32726	32737	31712	32775	32697	
428	0	32609	32775	31736	32677	32883	
429	0	32558	32551	31843	32719	32744	
430	0	32528	32629	32554	32727	32603	
431	0	32711	32791	33935	32867	32641	
432	0	32685	32743	34483	32775	32789	
433	0	32543	32589	35907	32847	32891	
434	0	32487	32657	35965	32727	32705	
435	0	32644	32597	36175	32859	32743	
436	0	33026	32451	35059	32869	32931	
437	0	32937	32495	33523	32947	32679	
438	0	33138	32807	32576	32825	32947	
439	0	33063	32701	30759	32815	32880	
440	0	32582	32626	28551	32813	32837	
441	0	32581	32701	28095	32671	33047	
442	0	32956	32673	29095	32924	32870	
443	0	33546	32515	29931	32851	32798	
444	0	34463	32479	31634	32869	32947	
445	0	35088	32593	34537	32802	33069	
446	0	34637	32765	35646	32751	32967	
447	0	33885	32839	36051	32687	32768	
448	0	33213	32755	34237	32620	33005	
449	0	32302	32707	32015	32815	32947	
450	0	31712	32615	31673	32737	32758	
451	0	31493	32478	31963	32685	32963	
452	0	31338	32455	33047	32758	32685	
453	0	31251	32514	33829	32698	32775	
454	0	31944	32775	34409	32775	33025	
455	0	32664	32665	32731	32826	32799	
456	0	33077	32546	32167	32759	32671	
457	0	32994	32837	31958	32939	32914	
458	0	32751	32681	31917	32825	32967	
459	0	33037	32623	32161	32769	32823	
460	0	33418	32723	31315	32821	32763	
461	0	33673	32613	31151	32855	32967	
462	0	33468	32547	32077	32813	32987	
463	0	32784	32775	33328	32835	32784	
464	0	32512	32775	33972	32795	32707	
465	0	32552	32709	34541	32775	32907	
466	0	32521	32611	35078	32711	32818	
467	0	32416	32727	34405	32827	32658	
468	0	32410	32502	32550	32834	32775	
469	0	32345	32487	32411	32801	32791	
470	0	32808	32559	32237	32813	32959	
471	0	32872	32679	32886	32758	32875	
472	0	32609	32707	32927	32805	32849	
473	0	32429	32677	32251	32689	32753	
474	0	32400	32691	30333	32871	32681	
475	0	32434	32711	31105	32676	32799	
476	0	32237	32479	32353	32811	32967	
477	0	32619	32562	32454	32825	32839	
478	0	32957	32659	32399	32869	32768	
479	0	32829	32771	32637	32800	32869	
480	0	33116	32696	33747	32792	32873	
481	0	33320	32629	32263	32898	32899	
482	0	33249	32743	31330	32815	32719	
483	0	33164	32548	32557	32731	32731	
484	0	32764	32515	34079	32855	32965	
485	0	32556	32691	34674	32746	32930	
486	0	32528	32699	33884	32771	32666	
487	0	32466	32647	32903	32717	32955	
488	0	32588	32643	32313	32698	32987	
489	0	32688	32710	33159	32737	32765	
490	0	32797	32656	34531	32658	32855	
491	0	32775	32575	34695	32737	33091	
492	0	32672	32537	35042	32762	33004	
493	0	32634	32711	34790	32812	32913	
494	0	32672	32711	33247	32833	32766	
495	0	32621	32583	30358	32679	32737	
496	0	32587	32674	29001	32821	32799	
497	0	32755	32683	28907	32775	32995	
498	0	32758	32491	29881	32817	32967	
499	0	32725	32743	31289	32765	32887	
500	0	32840	32678	32103	32681	32775	
501	0	32802	32658	32231	32861	32997	
502	0	32861	32728	33170	32755	32976	
503	0	32954	32827	33988	32893	32802	
504	0	32952	32775	34683	32825	32711	
505	0	32899	32599	35591	32775	32899	
506	0	32708	32443	35262	32863	32873	
507	0	32583	32543	34573	32775	33001	
508	0	32610	32749	34655	32811	32819	
509	0	32646	32727	33829	32723	32683	
510	0	32685	32740	31539	32825	32952	
511	0	32640	32662	29775	32759	32934	
512	0	32742	32691	29314	32895	32933	
513	0	32474	32603	29033	32751	32747	
514	0	32427	32669	31096	32933	32898	
515	0	32159	32597	31419	32707	32980	
516	0	31928	32518	32351	32887	32768	
517	0	32405	32551	34355	32788	32769	
518	0	33218	32741	35218	32853	32929	
519	0	33918	32683	34671	32677	32663	
520	0	34290	32631	35559	32765	32891	
521	0	34736	32695	36931	32683	32657	
522	0	34459	32754	37357	32707	32877	
523	0	33287	32732	34486	32672	32647	
524	0	31897	32667	31071	32751	32909	
525	0	31092	32595	29430	32695	32759	
526	0	31025	32610	28391	32812	32935	
527	0	31659	32603	28077	32775	32809	
528	0	33424	32647	29446	32787	32825	
529	0	35088	32728	33049	32729	32999	
530	0	35322	32683	33263	32773	32996	
531	0	34381	32582	31877	32757	32807	
532	0	33174	32658	30874	32774	32875	
533	0	32458	32703	29536	32825	32962	
534	0	32580	32593	29951	32796	32745	
535	0	32464	32597	32717	32762	32839	
536	0	32402	32667	33557	32775	32903	
537	0	32360	32647	34650	32735	32755	
538	0	31892	32531	34466	32847	32988	
539	0	31796	32537	34083	32851	32739	
540	0	31751	32451	34450	32871	32859	
541	0	31625	32537	34902	32749	32911	
542	0	32113	32935	35123	32731	32705	
543	0	32570	32939	34535	32704	32937	
544	0	32553	32839	33957	32793	32987	
545	0	32250	32805	34259	32809	32764	
546	0	32053	32791	32790	32774	32978	
547	0	32583	32773	31893	32775	32819	
548	0	33211	32829	33127	32818	33021	
549	0	33651	32725	33473	32836	32813	
550	0	34302	32625	33531	32789	32747	
551	0	34460	32647	33791	32845	33001	
552	0	34477	32512	33219	32813	32831	
553	0	33821	32437	32786	32870	32759	
554	0	32993	32423	32013	32819	32972	
555	0	32455	32613	31391	32769	32883	
556	0	32314	32693	30215	32746	32670	
557	0	32199	32751	30135	32702	32745	
558	0	32343	32658	31047	32745	32877	
559	0	32404	32839	31743	32647	32835	
560	0	32111	32669	32539	32789	32575	
561	0	32012	32479	33343	32646	32739	
562	0	31961	32531	32922	32861	32861	
563	0	32096	32695	32771	32812	32727	
564	0	32199	32857	32755	32809	32653	
565	0	32320	32749	33375	32835	32871	
566	0	32511	32591	34134	32857	32761	
567	0	32717	32611	34535	32832	32621	
568	0	32915	32679	34101	32759	32775	
569	0	33347	32545	32261	32919	33009	
570	0	33676	32433	32815	32793	32839	
571	0	33397	32697	33638	32793	32747	
572	0	32704	32671	32919	32775	32833	
573	0	32537	32683	32263	32708	32959	
574	0	32699	32715	32513	32837	32889	
575	0	32818	32771	30983	32821	32769	
576	0	32839	32623	31271	32728	32775	
577	0	32703	32475	32037	32872	32801	
578	0	32438	32683	32827	32787	32961	
579	0	32649	32699	33159	32839	32927	
580	0	32660	32677	33911	32803	32894	
581	0	32457	32827	34335	32752	32775	
582	0	32508	32762	34296	32839	32987	
583	0	32611	32491	32952	32741	32951	
584	0	32793	32511	33119	32877	33083	
585	0	32830	32733	32694	32811	32997	
586	0	32802	32747	30659	32711	32775	
587	0	33123	32673	30883	32758	32831	
588	0	33393	32607	33557	32647	32981	
589	0	33177	32639	34159	32791	32915	
590	0	32908	32733	32469	32742	32933	
591	0	32775	32551	30742	32717	32833	
592	0	32455	32691	30383	32740	32681	
593	0	32016	32835	30075	32583	32809	
594	0	32147	32773	32121	32847	32905	
595	0	32253	32679	34402	32813	32755	
596	0	32260	32637	35896	32791	32791	
597	0	32419	32610	32711	32723	32919	
598	0	32583	32635	31060	32757	32747	
599	0	33013	32607	31553	32775	32941	
600	0	33892	32637	31439	32771	33021	
601	0	34097	32631	33266	32831	32923	
602	0	33072	32515	32989	32751	32696	
603	0	32069	32639	31659	32847	32927	
604	0	31818	32610	33978	32729	32615	
605	0	32269	32541	34183	32754	32893	
606	0	33164	32531	32650	32713	32589	
607	0	34323	32623	31681	32795	32879	
608	0	34584	32583	32183	32683	32683	
609	0	34470	32663	32663	32850	32865	
610	0	34264	32677	32631	32775	32775	
611	0	34134	32675	33074	32803	32978	
612	0	33650	32693	33386	32828	32795	
613	0	33159	32654	33579	32836	32793	
614	0	32535	32599	33199	32815	32846	
615	0	31997	32557	33395	32775	32703	
616	0	31704	32735	33229	32745	32967	
617	0	31693	32831	32883	32729	32859	
618	0	31751	32889	34439	32775	32880	
619	0	31545	32857	35885	32801	32741	
620	0	31367	32754	35111	32811	32986	
621	0	31460	32775	34413	32789	32775	
622	0	32077	32765	32925	32823	32962	
623	0	32658	32658	30819	32745	32752	
624	0	33044	32563	30689	32882	32909	
625	0	33144	32447	31751	32727	32877	
626	0	33089	32497	32419	32829	32795	
627	0	32578	32451	31954	32735	33050	
628	0	32464	32475	31330	32879	32941	
629	0	32868	32560	31373	32740	32771	
630	0	33189	32603	30488	32911	32915	
631	0	33085	32743	30580	32911	32967	
632	0	33376	32711	31371	32861	32739	
633	0	33305	32693	32247	32767	32839	
634	0	33213	32623	32541	32839	32839	
635	0	33132	32729	32695	32807	32769	
636	0	32884	32727	32979	32743	32861	
637	0	32637	32679	33379	32774	32749	
638	0	32504	32703	34231	32732	32930	
639	0	32396	32691	34509	32804	32771	
640	0	32344	32591	33387	32673	32909	
641	0	32441	32515	32455	32727	32863	
642	0	32589	32397	33107	32673	32923	
643	0	32724	32407	33837	32793	32675	
644	0	32616	32414	34715	32667	33005	
645	0	32508	32733	34995	32772	32861	
646	0	32513	32704	33895	32667	32751	
647	0	32523	32691	32745	32845	32911	
648	0	32841	32721	31057	32800	32967	
649	0	32989	32770	31667	32792	32813	
650	0	32988	32794	32594	32753	32644	
651	0	32797	32719	33053	32775	32882	
652	0	32720	32579	33011	32773	32897	
653	0	32712	32471	32833	32795	32625	
654	0	32621	32549	32819	32839	32875	
655	0	32568	32681	32913	32775	32659	
656	0	32534	32685	32244	32845	32813	
657	0	32624	32679	30590	32835	32794	
658	0	32707	32617	31296	32850	32799	
659	0	32919	32775	32937	32738	32983	
660	0	33200	32767	33903	32827	32934	
661	0	33164	32609	32995	32711	32883	
662	0	32920	32563	31346	32847	32833	
663	0	32937	32607	32142	32869	32774	
664	0	32932	32593	33799	32771	32981	
665	0	32693	32666	33658	32749	32775	
666	0	32615	32775	32345	32767	32769	
667	0	32592	32715	32145	32743	32942	
668	0	32581	32671	32711	32711	32657	
669	0	32684	32638	32495	32815	32989	
670	0	32754	32607	31766	32711	32833	
671	0	33059	32618	30639	32818	32745	
672	0	33254	32717	31207	32763	33013	
673	0	32906	32898	32515	32775	32739	
674	0	32875	32787	34283	32795	32775	
675	0	32775	32719	34779	32805	32941	
676	0	32877	32711	34533	32799	32827	
677	0	32564	32823	32715	32825	32747	
678	0	32088	32825	32249	32824	32851	
679	0	31742	32706	32799	32863	32902	
680	0	31589	32493	33711	32767	32813	
681	0	32060	32351	31751	32899	32719	
682	0	32994	32425	30228	32771	32999	
683	0	35152	32640	29843	32839	32885	
684	0	36333	32757	30903	32815	32763	
685	0	35227	32704	33143	32839	32967	
686	0	33785	32731	34311	32825	32967	
687	0	32568	32825	34448	32743	32786	
688	0	31877	32519	34298	32711	32807	
689	0	31675	32433	33867	32735	33031	
690	0	31664	32532	32314	32862	32731	
691	0	32029	32727	31145	32804	32995	
692	0	32237	32767	31837	32935	32751	
693	0	32797	32805	32227	32833	32699	
694	0	33607	32663	33191	32789	32859	
695	0	34434	32707	34027	32861	32819	
696	0	33997	32607	34311	32805	32686	
697	0	32910	32551	34669	32775	32729	
698	0	32251	32441	34205	32722	32922	
699	0	32424	32461	31465	32736	32903	
700	0	33317	32555	30943	32705	32747	
701	0	33744	32499	29869	32775	32912	
702	0	33532	32671	29447	32643	32949	
703	0	33203	32575	30510	32903	32698	
704	0	33116	32431	32166	32835	33017	
705	0	33252	32341	33799	32844	32817	
706	0	32728	32535	33877	32827	32879	
707	0	32117	32625	33945	32829	32903	
708	0	31459	32421	33507	32784	32754	
709	0	30826	32498	33255	32745	32771	
710	0	30657	32743	33982	32659	32889	
711	0	31127	32669	35033	32595	32659	
712	0	31715	32728	34477	32629	32935	
713	0	32048	32719	35167	32609	32851	
714	0	32458	32717	35677	32709	32729	
715	0	32816	32795	35015	32677	32812	
716	0	33208	32847	33932	32748	32935	
717	0	33327	32656	34135	32595	32727	
718	0	33314	32595	33087	32691	32933	
719	0	32879	32455	30299	32690	32925	
720	0	32634	32487	30707	32771	32703	
721	0	32451	32517	30783	32679	32985	
722	0	32386	32599	30941	32847	32745	
723	0	32572	32735	31990	32807	32934	
724	0	33035	32673	31567	32583	32759	
725	0	32873	32753	30237	32745	32942	
726	0	32691	32919	27828	32862	32751	
727	0	32275	32899	29387	32647	32909	
728	0	31950	32647	31363	32795	32664	
729	0	32005	32766	33906	32775	32907	
730	0	32320	32751	35168	32795	32671	
731	0	32622	32731	34503	32773	32839	
732	0	32879	32617	34007	32742	32741	
733	0	33410	32615	34137	32861	32807	
734	0	33745	32711	34320	32848	32898	
735	0	33254	32813	33127	32775	32711	
736	0	32876	32635	31411	32816	32911	
737	0	32932	32560	32187	32750	32680	
738	0	32873	32565	33817	32799	32963	
739	0	32664	32489	35079	32813	32679	
740	0	32006	32499	34729	32799	32977	
741	0	31297	32391	33091	32815	32737	
742	0	30937	32436	31183	32704	33019	
743	0	31489	32663	31147	32823	32759	
744	0	32806	32738	33143	32793	32993	
745	0	34164	32813	34507	32757	32799	
746	0	35563	32639	33219	32865	32999	
747	0	35189	32610	31455	32717	32827	
748	0	34036	32635	30701	32825	32999	
749	0	33396	32515	30162	32775	32965	
750	0	33173	32543	30008	32908	32831	
751	0	33728	32653	31175	32882	32999	
752	0	34082	32607	32590	32887	32976	
753	0	33983	32669	34778	32891	32813	
754	0	34046	32797	34781	32773	32932	
755	0	33828	32740	33575	32774	32875	
756	0	33079	32774	32979	32711	32868	
757	0	31704	32735	31942	32797	32906	
758	0	30709	32798	31376	32797	32705	
759	0	30290	32657	31706	32773	32789	
760	0	30463	32568	32997	32831	32835	
761	0	31081	32662	34017	32695	32751	
762	0	31844	32639	34180	32786	32682	
763	0	32804	32499	34462	32675	32886	
764	0	33752	32493	34551	32795	32643	
765	0	34586	32637	34565	32732	32899	
766	0	34818	32626	33426	32803	32934	
767	0	34247	32693	31363	32769	32690	
768	0	33282	32621	31217	32855	32732	
769	0	32305	32647	31919	32851	32988	
770	0	31854	32683	31448	32890	32885	
771	0	32342	32546	31691	32898	32711	
772	0	32633	32646	32292	32827	32659	
773	0	32485	32801	33265	32875	32871	
774	0	32096	32641	33299	32775	32914	
775	0	31909	32583	33356	32801	32735	
776	0	32173	32622	33223	32793	32687	
777	0	32965	32667	33810	32792	32940	
778	0	33628	32567	33915	32799	32735	
779	0	33724	32463	33911	32839	33050	
780	0	33260	32407	33606	32797	32795	
781	0	32775	32443	32717	32711	32775	
782	0	32656	32651	30343	32758	33031	
783	0	32448	32655	30707	32699	32903	
784	0	32144	32775	32029	32822	32809	
785	0	31892	32989	31783	32693	33051	
786	0	32068	32825	31557	32871	32768	
787	0	32628	32743	32109	32690	32773	
788	0	33038	32757	32797	32847	32946	
789	0	33518	32690	33211	32832	32915	
790	0	33549	32485	33377	32807	32659	
791	0	33222	32461	33667	32839	32835	
792	0	32583	32563	33287	32803	32873	
793	0	32391	32675	33017	32875	32723	
794	0	32417	32801	32825	32775	32988	
795	0	32307	32658	32845	32865	32975	
796	0	32330	32533	33157	32756	32943	
797	0	32472	32557	33287	32798	32923	
798	0	32775	32735	33566	32823	32743	
799	0	32812	32605	33341	32722	32825	
800	0	32752	32483	33135	32763	32982	
801	0	32720	32437	32763	32749	32911	
802	0	32653	32518	33015	32771	32775	
803	0	32674	32770	32507	32705	32673	
804	0	32768	32735	32893	32775	32859	
805	0	32747	32683	33069	32653	32857	
806	0	32571	32590	33201	32835	32733	
807	0	32531	32581	33170	32818	32869	
808	0	32607	32695	33115	32903	32967	
809	0	32970	32797	32617	32835	32933	
810	0	33117	32701	31679	32690	32757	
811	0	33213	32575	30253	32885	32703	
812	0	32902	32659	30235	32793	32937	
813	0	32738	32711	30727	32741	32942	
814	0	32737	32690	31231	32765	32775	
815	0	32566	32661	31151	32672	32805	
816	0	32370	32667	32255	32839	32845	
817	0	32444	32699	33427	32747	32723	
818	0	32848	32623	33614	32815	32997	
819	0	33106	32699	31387	32758	32835	
820	0	33405	32755	31651	32834	32950	
821	0	33296	32630	32391	32740	32820	
822	0	32789	32561	33967	32753	33047	
823	0	32327	32505	34823	32750	32877	
824	0	32205	32463	34687	32717	32839	
825	0	32310	32493	35463	32767	33005	
826	0	32668	32535	34368	32727	32967	
827	0	33492	32583	33447	32805	32775	
828	0	33927	32743	33645	32745	32759	
829	0	33411	32807	34573	32839	32959	
830	0	32800	32647	35199	32767	32973	
831	0	32228	32663	34455	32736	32813	
832	0	32224	32702	30279	32745	32966	
833	0	32595	32731	28595	32867	33027	
834	0	32750	32657	30183	32835	32863	
835	0	33344	32743	30285	32849	32637	
836	0	34200	32807	30989	32851	32848	
837	0	34412	32805	32348	32839	32689	
838	0	34152	32775	31994	32775	32760	
839	0	33760	32698	33138	32851	32839	
840	0	32526	32767	33652	32825	32630	
841	0	31739	32717	33599	32803	32827	
842	0	31363	32742	32217	32871	32719	
843	0	31762	32627	31781	32803	32855	
844	0	32775	32528	30540	32877	32831	
845	0	33456	32547	30075	32807	32975	
846	0	33831	32481	31705	32730	32829	
847	0	33347	32449	32979	32833	32723	
848	0	32470	32722	33913	32829	32925	
849	0	31819	32657	35001	32775	32918	
850	0	31887	32710	33652	32827	32911	
851	0	32114	32615	33735	32707	32647	
852	0	32525	32711	33999	32775	32923	
853	0	32702	32755	33850	32765	32889	
854	0	32600	32698	33629	32867	32750	
855	0	32248	32523	33598	32730	32995	
856	0	32007	32391	33849	32855	32759	
857	0	32000	32433	33700	32803	32989	
858	0	32263	32567	33511	32801	32919	
859	0	32646	32772	33607	32807	32745	
860	0	32972	32771	34720	32803	32909	
861	0	33244	32699	35357	32719	33023	
862	0	33719	32807	34663	32711	32795	
863	0	33645	32719	32733	32809	32835	
864	0	33923	32541	32192	32770	33001	
865	0	33540	32517	30369	32879	32751	
866	0	32869	32631	28647	32813	33019	
867	0	32592	32850	28360	32907	32943	
868	0	31997	32895	30458	32792	32765	
869	0	31664	32771	32621	32775	32981	
870	0	31952	32679	33565	32775	32741	
871	0	32304	32773	33255	32827	32953	
872	0	33257	32767	33450	32774	32735	
873	0	33839	32547	33123	32775	32677	
874	0	33538	32468	32556	32737	32921	
875	0	33051	32579	30631	32687	32829	
876	0	33033	32619	31257	32739	32809	
877	0	32594	32523	32677	32745	32933	
878	0	32112	32630	32085	32748	32711	
879	0	32341	32631	32341	32719	32871	
880	0	32516	32551	33070	32767	32883	
881	0	32811	32663	34127	32719	32701	
882	0	33287	32759	33859	32771	32849	
883	0	33767	32791	34509	32767	32818	
884	0	33909	32669	34329	32807	32602	
885	0	33362	32501	33663	32800	32775	
886	0	33046	32681	33527	32885	32839	
887	0	32651	32646	34045	32759	32675	
888	0	32380	32755	34311	32894	32775	
889	0	32320	32666	34188	32750	32883	
890	0	32125	32615	33635	32879	32662	
891	0	32102	32617	31983	32811	32911	
892	0	31915	32635	32141	32865	32902	
893	0	31995	32605	30503	32831	32702	
894	0	32188	32442	29913	32793	32909	
895	0	32491	32485	31053	32822	32967	
896	0	32712	32631	32563	32684	32807	
897	0	32912	32697	33572	32820	33051	
898	0	32775	32665	34043	32807	32871	
899	0	32693	32717	34087	32775	32817	
900	0	32829	32775	33782	32809	32905	
901	0	32686	32593	30967	32636	32933	
902	0	32448	32575	29443	32807	32999	
903	0	32277	32733	31743	32731	32941	
904	0	32464	32639	33473	32742	32751	
905	0	32845	32619	35000	32817	32774	
906	0	32919	32711	35947	32773	33017	
907	0	32519	32579	34025	32725	32854	
908	0	31901	32455	30007	32635	32703	
909	0	31709	32619	27868	32859	32807	
910	0	31902	32839	29223	32771	32891	
911	0	32832	32621	32437	32809	32652	
912	0	33974	32637	35069	32794	32694	
913	0	33854	32775	35835	32791	32882	
914	0	33345	32735	36359	32749	32717	
915	0	32665	32687	36242	32773	32743	
916	0	32090	32669	32876	32754	32857	
917	0	32147	32626	30941	32685	32903	
918	0	32643	32592	32673	32763	32899	
919	0	31945	32707	33795	32743	32851	
920	0	31086	32825	32559	32829	32670	
921	0	31681	32682	30439	32737	32753	
922	0	33464	32492	26911	32795	32813	
923	0	35602	32565	27227	32749	32603	
924	0	37156	32530	29965	32845	32861	
925	0	36441	32564	33418	32834	32613	
926	0	35016	32813	38679	32769	32963	
927	0	33574	32775	36144	32819	32789	
928	0	32962	32719	31419	32752	33020	
929	0	32467	32615	29029	32826	32848	
930	0	31436	32635	30062	32722	32981	
931	0	30778	32675	31919	32825	32984	
932	0	29334	32527	32775	32775	32839	
933	0	29791	32551	32747	32949	32975	
934	0	32680	32743	34342	32820	33023	
935	0	34921	32802	37814	32845	32959	
936	0	35250	32775	38694	32728	32711	
937	0	34015	32883	37829	32736	32939	
938	0	32709	33063	37147	32743	32903	
939	0	31875	32924	34218	32736	32850	
940	0	31860	32754	31203	32818	32704	
941	0	32748	32432	26470	32771	32845	
942	0	32961	32339	25468	32615	32863	
943	0	33490	32195	28354	32683	32653	
944	0	33392	32071	31866	32635	32756	
945	0	32341	32359	34003	32815	32973	
946	0	31737	32691	35975	32898	32953	
947	0	31012	32623	36449	32867	32710	
948	0	29336	32621	34296	32805	32957	
949	0	28166	32607	33543	32850	32647	
950	0	28985	32858	32743	32827	32967	
951	0	31173	32711	31485	32744	32790	
952	0	33632	32693	32321	32849	32758	
953	0	34711	32491	34522	32835	32931	
954	0	35586	32655	34530	32863	32839	
955	0	37075	33031	33253	32858	32736	
956	0	37261	33133	32495	32812	32861	
957	0	35736	33246	33831	32775	32980	
958	0	34504	33351	34062	32723	33114	
959	0	33914	33479	32221	32775	32998	
960	0	33048	33369	28903	32801	32797	
961	0	32524	32850	30695	32765	32999	
962	0	32528	32742	30151	32845	32935	
963	0	33588	32557	31220	32758	32804	
964	0	33761	32351	32464	32795	32825	
965	0	33318	32225	34734	32690	32937	
966	0	32371	32246	36615	32664	32681	
967	0	32758	32281	32926	32661	32809	
968	0	32929	32152	28141	32856	32977	
969	0	33639	31725	27644	32825	32919	
970	0	33984	31339	29149	32775	32675	
971	0	32734	31399	31467	32861	32673	
972	0	32233	31527	33631	32757	32960	
973	0	30994	32159	36448	32788	32943	
974	0	30117	32827	36935	32775	32827	
975	0	29879	33455	34160	32879	32655	
976	0	30054	33749	33051	32903	32902	
977	0	30468	33831	32057	32902	32757	
978	0	32429	33908	31871	32881	32583	
979	0	33526	33385	30767	32801	32693	
980	0	34176	32845	32377	32825	32841	
981	0	33861	32357	32767	32697	32728	
982	0	33160	32131	30231	32711	32711	
983	0	32818	31949	32641	32674	32961	
984	0	33074	32167	36151	32790	32862	
985	0	33731	32409	35215	32813	32607	
986	0	33936	32761	33383	32903	32827	
987	0	32204	32961	31861	32821	32945	
988	0	31274	32838	31175	32891	32751	
989	0	31239	32879	31815	32759	32835	
990	0	31613	32707	31154	32848	33023	
991	0	32139	32603	31549	32735	32789	
992	0	33436	32262	33631	32826	32677	
993	0	34800	32085	34637	32665	32695	
994	0	34905	32043	35383	32850	32857	
995	0	34273	32233	35734	32741	32813	
996	0	33339	32697	36830	32807	32615	
997	0	33386	33095	36583	32870	32817	
998	0	32868	33443	35393	32755	32775	
999	0	31426	33484	34346	32771	32643	
1000	0	29563	33508	31901	32709	32930	
1001	0	27803	33111	26611	32765	32843	
1002	0	27290	32735	26939	32755	32765	
1003	0	28490	32387	28705	32775	32674	
1004	0	30834	32128	31168	32685	32974	
1005	0	33608	32095	33019	32787	32983	
1006	0	35744	32066	33083	32809	32802	
1007	0	36099	32442	33287	32870	33015	
1008	0	35582	32729	33935	32791	32827	
1009	0	34959	33461	34999	32792	33035	
1010	0	33982	34141	33406	32831	32774	
1011	0	33736	34031	30949	32869	32921	
1012	0	33444	33980	28913	32795	32967	
1013	0	30649	34015	30335	32850	32807	
1014	0	28784	33867	31440	32642	32919	
1015	0	28584	33321	32431	32819	33123	
1016	0	30539	32656	34985	32817	32876	
1017	0	32449	32245	36871	32807	32941	
1018	0	34488	31871	37153	32817	33095	
1019	0	36464	31736	38433	33006	32818	
1020	0	36927	31687	39687	33009	32825	
1021	0	38292	31477	35433	33072	32933	
1022	0	37695	31055	31109	32907	32928	
1023	0	34688	30421	27966	33023	32688	
1024	0	32616	30215	26631	32857	32912	
1025	0	32061	29894	22920	32896	32775	
1026	0	33351	30103	23611	32605	32775	
1027	0	36504	30633	27497	32740	32886	
1028	0	39170	31353	34750	32571	32775	
1029	0	39645	32210	37362	32671	32683	
1030	0	36917	33087	35975	32711	32793	
1031	0	33200	33395	32525	32775	32962	
1032	0	30177	34189	32993	32829	32943	
1033	0	28180	34735	34463	32752	32688	
1034	0	26562	35351	34161	32847	32774	
1035	0	25626	35608	33967	32727	32927	
1036	0	26553	35058	35131	32672	32850	
1037	0	28096	33711	35091	32711	32611	
1038	0	29200	32415	34061	32639	32869	
1039	0	30074	31096	34778	32689	32868	
1040	0	30392	30303	38498	32663	32634	
1041	0	31602	30303	37474	32583	32747	
1042	0	31699	31341	33172	32553	32846	
1043	0	31743	32466	29964	32722	32935	
1044	0	34224	33135	27918	32669	32967	
1045	0	37654	33633	27373	32775	33007	
1046	0	38407	34351	29083	32731	33057	
1047	0	36368	34834	29734	32829	32853	
1048	0	32722	35367	26355	32960	32833	
1049	0	29789	34855	29951	32825	32877	
1050	0	28726	34174	35505	32950	33049	
1051	0	29694	33185	40763	32927	33063	
1052	0	31289	32919	41558	32809	32793	
1053	0	31942	32349	42291	32858	32837	
1054	0	33344	31841	41623	32765	32962	
1055	0	33558	31519	35728	32744	32724	
1056	0	33646	31161	24924	32918	32833	
1057	0	35800	30984	18593	32702	32977	
1058	0	38456	30674	16130	32824	32909	
1059	0	40180	30773	17563	32635	32773	
1060	0	39941	31332	26029	32676	32763	
1061	0	38448	31751	33153	32567	32999	
1062	0	35429	31978	35423	32717	32775	
1063	0	32065	32311	36493	32646	32759	
1064	0	29563	32805	36739	32759	32967	
1065	0	27558	33517	37051	32688	32851	
1066	0	26778	33991	38800	32699	32729	
1067	0	26888	34170	39029	32678	32979	
1068	0	28199	34183	38114	32675	32875	
1069	0	30376	34178	38287	32754	32681	
1070	0	31982	34672	37921	32793	32939	
1071	0	32851	34729	37511	32813	32924	
1072	0	33963	34639	36871	32709	32757	
1073	0	34443	34517	35399	32755	32839	
1074	0	34333	33913	37226	32839	32903	
1075	0	34784	32719	36715	33025	32637	
1076	0	34882	31431	31855	33121	32820	
1077	0	33986	30639	26220	32975	32892	
1078	0	33680	30045	20196	32964	32655	
1079	0	34925	29828	17651	32987	32735	
1080	0	35092	29971	18789	32877	32923	
1081	0	34547	30749	23227	32665	32775	
1082	0	33884	31537	28205	32632	32837	
1083	0	33131	32480	33282	32656	32955	
1084	0	31003	32832	36551	32925	32930	
1085	0	29446	33318	37095	32807	32704	
1086	0	29938	33765	36865	32553	33015	
1087	0	30913	34413	36566	32483	32847	
1088	0	29368	34688	36670	32460	33005	
1089	0	28162	34759	38471	32521	32980	
1090	0	28912	34611	42823	32533	32813	
1091	0	31270	34135	44079	32748	32977	
1092	0	32528	33395	41863	32869	32751	
1093	0	31751	32261	38840	33035	32871	
1094	0	31117	31006	34899	33159	32695	
1095	0	30854	29484	30849	33007	32890	
1096	0	31149	28679	26640	32815	32641	
1097	0	31336	28542	29527	32991	32698	
1098	0	33512	29266	28288	32987	32932	
1099	0	36022	30308	27399	32867	32657	
1100	0	38024	31843	29485	32843	32893	
1101	0	39418	33499	26119	32683	32557	
1102	0	39707	35233	23573	32653	32812	
1103	0	38253	36479	25104	32732	32634	
1104	0	34592	37284	22191	32630	32747	
1105	0	31983	36957	27098	32873	32975	
1106	0	30283	35826	34023	32923	32796	
1107	0	29454	34063	37862	33029	33000	
1108	0	30308	32187	38469	32955	32809	
1109	0	31026	30212	38019	32647	33055	
1110	0	30530	29831	37593	32247	32770	
1111	0	30288	30463	37407	32086	33085	
1112	0	30584	30794	37026	32341	32767	
1113	0	32698	30723	40773	32496	33013	
1114	0	36208	31016	44731	32825	32775	
1115	0	40624	31047	43803	32766	33044	
1116	0	42819	31309	39911	32953	32967	
1117	0	41840	31686	32238	32997	32813	
1118	0	37528	32088	22986	33059	32756	
1119	0	32562	32485	15015	33090	32886	
1120	0	28765	32337	14252	32792	32844	
1121	0	25645	32735	25491	32724	32775	
1122	0	25336	33452	32473	32484	32749	
1123	0	22950	33673	33544	32515	32956	
1124	0	21704	34596	33375	32470	32878	
1125	0	24628	35035	32556	32867	32673	
1126	0	27165	34759	31319	32973	32670	
1127	0	28946	34630	33095	33026	32864	
1128	0	34024	34055	35706	32864	32931	
1129	0	41052	33913	35538	32770	32823	
1130	0	45105	33247	35326	32819	32707	
1131	0	44859	32809	36121	33287	32916	
1132	0	43015	32690	35877	33273	32697	
1133	0	39080	33013	33996	33119	32978	
1134	0	34272	32774	32731	32543	32710	
1135	0	30564	32652	29744	32401	32960	
1136	0	26384	32606	29493	32259	32745	
1137	0	22938	33155	32616	32489	32955	
1138	0	22504	33139	39700	32480	32790	
1139	0	24553	33252	45663	32495	32722	
1140	0	28468	33470	43382	32799	32839	
1141	0	29561	33516	37106	32850	32838	
1142	0	30557	33811	30869	32805	32675	
1143	0	32774	34311	30578	32987	32751	
1144	0	34304	34288	26889	32885	32895	
1145	0	36892	33584	21634	33050	32681	
1146	0	40824	32848	14072	33119	32775	
1147	0	42548	31446	14732	33216	32951	
1148	0	42386	29517	22404	33251	32869	
1149	0	42986	27920	30771	33317	32648	
1150	0	42290	27364	39267	33100	32772	
1151	0	40125	28358	43892	32955	32930	
1152	0	35513	30151	39638	32693	32930	
1153	0	30610	32243	36231	32472	32946	
1154	0	25639	34226	39096	32548	32860	
1155	0	23388	35234	39859	32605	33026	
1156	0	23888	35369	38530	32617	33031	
1157	0	27009	34934	36997	32668	32832	
1158	0	29907	34374	38535	32455	32711	
1159	0	31268	34165	36907	32403	32978	
1160	0	31296	33947	37218	32519	32976	
1161	0	31456	32929	40483	32685	32987	
1162	0	32337	32387	45737	32659	32818	
1163	0	32329	32482	36972	32713	32844	
1164	0	33120	32398	21161	32835	32873	
1165	0	33564	33154	12957	32685	32644	
1166	0	31919	34363	14439	32626	32839	
1167	0	30937	35011	17179	32595	32700	
1168	0	31432	35063	17424	32489	33001	
1169	0	31653	33637	22235	32891	32981	
1170	0	31273	31988	29023	32679	32675	
1171	0	31627	30711	36101	32704	32889	
1172	0	31952	29895	41974	32603	32930	
1173	0	30584	29032	41682	32896	32866	
1174	0	27975	27922	41411	33259	32752	
1175	0	25545	26924	40815	33357	32758	
1176	0	28667	27439	41862	33403	32942	
1177	0	35476	29684	45480	33304	32616	
1178	0	43392	32022	47012	33054	32839	
1179	0	47111	34477	43143	32619	32730	
1180	0	46800	35728	35030	32410	32657	
1181	0	44912	36192	18485	32237	32853	
1182	0	39368	35562	4415	32524	32720	
1183	0	33809	34788	4428	32813	32978	
1184	0	28904	34058	16434	32844	32793	
1185	0	24804	33206	23344	32855	33005	
1186	0	24910	32812	27655	33331	32761	
1187	0	28452	33057	32425	33215	32877	
1188	0	32930	33140	37970	32994	32861	
1189	0	34498	32112	44303	33012	32741	
1190	0	34984	30425	48360	33040	32945	
1191	0	33618	28186	52316	32833	32896	
1192	0	30874	26494	55175	32658	32696	
1193	0	26778	26528	54847	32816	32986	
1194	0	23476	29033	49176	32613	32751	
1195	0	20960	32041	44856	32526	32997	
1196	0	20002	34617	43330	32068	32722	
1197	0	21586	37177	37771	31990	33076	
1198	0	25928	38945	20957	32221	32848	
1199	0	33424	38834	8253	32910	33003	
1200	0	40805	38387	8954	32925	32905	
1201	0	47570	37849	14521	32820	32766	
1202	0	48268	37245	16147	32801	32891	
1203	0	45429	37584	12934	32501	32860	
1204	0	41478	37115	11453	32427	32944	
1205	0	37352	35867	19755	32288	32960	
1206	0	34348	33926	31147	33044	32775	
1207	0	32884	30960	37380	33574	32818	
1208	0	31704	28463	43410	33744	33071	
1209	0	31104	26911	46157	33614	32715	
1210	0	31657	26105	50296	33520	32849	
1211	0	30211	26322	53935	33284	32744	
1212	0	26444	27355	52093	33246	32583	
1213	0	25834	28039	48134	32134	32956	
1214	0	27330	29051	46115	32099	33090	
1215	0	32169	30092	46226	32205	33069	
1216	0	36090	31785	37928	32144	33168	
1217	0	37317	33584	14726	32148	33098	
1218	0	34034	36221	3199	32317	32976	
1219	0	30987	37720	9270	32506	33439	
1220	0	32176	38656	22117	33175	33961	
1221	0	33888	38357	24150	33252	33631	
1222	0	34896	36495	20128	32855	32746	
1223	0	35305	32976	24515	32544	32775	
1224	0	36912	29674	34502	32492	32816	
1225	0	35216	27813	40632	32613	32319	
1226	0	33378	27849	46767	32653	31718	
1227	0	32273	29432	50793	32442	31512	
1228	0	30578	32390	54950	32579	31722	
1229	0	28496	34681	51705	32599	31657	
1230	0	27296	35728	46055	32907	32085	
1231	0	29292	34322	39956	32913	32850	
1232	0	32907	32612	30804	33015	33391	
1233	0	33939	31000	18925	33024	33588	
1234	0	32800	29359	9582	32996	33538	
1235	0	31725	29701	10965	33083	33686	
1236	0	27579	31290	18572	32591	33844	
1237	0	24512	33090	25884	32280	33308	
1238	0	23953	35266	29961	32312	32723	
1239	0	27045	37427	27909	32874	33806	
1240	0	34220	37023	28390	33013	34653	
1241	0	41736	35734	32150	33048	34478	
1242	0	47288	33591	34160	33098	33323	
1243	0	49968	31616	37784	33149	33238	
1244	0	47552	30568	45136	32972	32338	
1245	0	40746	29456	50454	32955	30294	
1246	0	33492	28772	49172	32728	30249	
1247	0	26656	28268	48613	32548	31273	
1248	0	21713	28402	45463	32467	31714	
1249	0	21596	29755	36930	33042	31822	
1250	0	25772	31256	19644	33338	31652	
1251	0	32492	33138	4529	32932	32240	
1252	0	36096	35747	5789	32851	32775	
1253	0	37349	37782	17650	32769	32549	
1254	0	34170	39292	30544	32704	33132	
1255	0	28390	39504	37104	32585	33644	
1256	0	24509	38265	39776	32612	34554	
1257	0	23872	35817	39202	32685	34363	
1258	0	27176	33206	42979	32982	34400	
1259	0	30727	31525	44912	33125	34475	
1260	0	32394	30347	44470	33565	34216	
1261	0	33282	29255	41367	33329	32577	
1262	0	33519	28182	37156	32914	29405	
1263	0	33280	27971	36305	32711	31300	
1264	0	34480	28896	38279	32731	32050	
1265	0	37224	30544	29816	32861	32136	
1266	0	38444	33280	18385	32473	32560	
1267	0	37394	34944	11826	32627	33083	
1268	0	35842	35802	19512	32551	33216	
1269	0	34160	36010	32513	32648	33668	
1270	0	30533	35699	38433	32580	33577	
1271	0	29703	34791	40943	32597	33351	
1272	0	31005	34599	46944	32350	33440	
1273	0	29376	34904	46035	32530	33368	
1274	0	26707	34393	40105	32263	33328	
1275	0	26061	33961	24528	32343	33166	
1276	0	29396	32108	13963	32764	32850	
1277	0	35160	29936	10404	33244	32729	
1278	0	39879	27858	16113	32390	32549	
1279	0	42916	27733	28662	32820	32862	
1280	0	46824	29042	40964	32957	33164	
1281	0	50384	31293	48588	32925	33193	
1282	0	50522	33188	49522	32794	33347	
1283	0	45144	34554	44301	32839	33055	
1284	0	35929	35990	38733	32973	33287	
1285	0	28434	37302	32456	33008	32498	
1286	0	23396	36698	18499	33132	30707	
1287	0	20913	34786	19497	32760	32289	
1288	0	20033	31789	24194	32853	32812	
1289	0	22855	29420	25952	33369	32839	
1290	0	26600	28290	35572	33483	32907	
1291	0	27212	28807	46345	33021	33159	
1292	0	25664	30483	50784	32846	33093	
1293	0	24908	31943	48822	32381	32967	
1294	0	24807	32925	42580	32396	32166	
1295	0	26333	33607	25381	32522	32505	
1296	0	29957	34432	11340	32485	32744	
1297	0	35234	34933	11820	32955	32953	
1298	0	40676	34377	18684	33091	32933	
1299	0	44092	33994	28486	32800	33636	
1300	0	45328	34584	39298	32378	33912	
1301	0	42364	34171	42383	31951	34461	
1302	0	37487	32349	41727	32300	33869	
1303	0	34042	29462	44591	33131	32653	
1304	0	30636	28459	39493	33152	31316	
1305	0	25639	28593	27913	32752	30758	
1306	0	23475	30769	20172	32899	32269	
1307	0	23696	32941	16249	32769	32967	
1308	0	27506	34186	25207	32816	33287	
1309	0	29808	35260	38032	32700	36176	
1310	0	30740	36480	46016	33023	35661	
1311	0	31488	35574	44999	33235	33819	
1312	0	35936	33695	40191	33095	29056	
1313	0	39989	31585	36851	32808	26805	
1314	0	40336	29763	33397	32786	28325	
1315	0	37496	29149	26832	32740	31170	
1316	0	32350	29376	20461	32301	32588	
1317	0	28882	30386	19352	32733	33590	
1318	0	27298	31751	23453	32737	33455	
1319	0	26849	33575	27187	33276	34985	
1320	0	28490	34507	31233	33248	35453	
1321	0	33108	34084	37986	33321	35216	
1322	0	40232	33517	42183	32917	33852	
1323	0	46313	33287	46703	32803	30700	
1324	0	45699	32976	52388	32601	31220	
1325	0	41062	32199	57524	32524	32549	
1326	0	33896	31514	55367	32436	31860	
1327	0	26709	30413	52877	32758	31836	
1328	0	21402	29524	33176	32896	33544	
1329	0	17584	30148	8857	33197	34076	
1330	0	19581	31638	492	32904	33958	
1331	0	26105	33254	3539	32568	33947	
1332	0	36061	35506	12267	31967	34034	
1333	0	43868	37130	22102	31860	33448	
1334	0	49044	38919	31813	32105	32443	
1335	0	50162	38880	36840	32505	31110	
1336	0	43560	36884	40646	32993	32458	
1337	0	35544	35224	41991	33298	33864	
1338	0	27734	34189	40332	32966	35019	
1339	0	22316	32457	37661	33036	35216	
1340	0	21765	30095	35210	32953	32791	
1341	0	26770	28434	28712	32760	29861	
1342	0	35297	27392	22994	33064	29797	
1343	0	40236	27228	27916	32921	32470	
1344	0	40716	28560	39377	33039	32228	
1345	0	36837	29954	45453	33304	33015	
1346	0	32612	31725	42563	33263	32725	
1347	0	29864	33278	36440	32725	31780	
1348	0	29434	34306	30207	32536	32650	
1349	0	30541	34836	26259	32385	33574	
1350	0	29966	34789	23866	32571	34082	
1351	0	27056	34439	25577	32755	33918	
1352	0	24886	34879	22789	33080	33517	
1353	0	25410	35842	25262	33021	33589	
1354	0	25615	35655	30720	32767	33509	
1355	0	27592	34598	33917	32315	33402	
1356	0	31032	33234	37726	32459	33268	
1357	0	35354	31352	40165	32523	33397	
1358	0	38424	31493	44103	32618	32979	
1359	0	40300	32703	43475	32162	32914	
1360	0	39923	34791	39963	31983	32327	
1361	0	37023	34946	35430	32861	32238	
1362	0	32664	33339	34394	33466	32807	
1363	0	28032	30849	36605	33680	33296	
1364	0	24384	29566	32752	32905	32670	
1365	0	26156	28887	29871	33135	32087	
1366	0	28178	29799	31335	33351	32851	
1367	0	31771	31828	35288	33127	32672	
1368	0	37432	33923	31473	32501	31684	
1369	0	43776	34820	21205	32028	30081	
1370	0	43721	33637	22251	32103	31746	
1371	0	38528	30850	29688	32707	33321	
1372	0	32848	28460	38584	32982	33480	
1373	0	29272	27747	40579	33261	33287	
1374	0	27278	29840	33482	33142	33504	
1375	0	25829	33200	24058	33065	33542	
1376	0	25315	36850	19541	32640	34296	
1377	0	27743	38239	24613	32448	33870	
1378	0	32409	37963	27218	32530	33279	
1379	0	40165	35525	24954	32801	32726	
1380	0	47684	32775	28604	32976	32133	
1381	0	51904	29924	37255	32837	32262	
1382	0	48736	28216	40691	32621	32408	
1383	0	40967	28679	40690	32715	33017	
1384	0	31872	30378	42558	32916	32895	
1385	0	23532	32368	41073	32960	33104	
1386	0	20588	34073	40455	33058	32893	
1387	0	20214	34771	39148	32499	33107	
1388	0	20076	34311	39238	32472	32879	
1389	0	19938	33263	39017	32309	32976	
1390	0	21721	31858	37763	33241	32885	
1391	0	26421	31497	38849	33398	32896	
1392	0	31300	31616	42968	33017	32690	
1393	0	34530	31098	45025	32671	33021	
1394	0	33728	30077	39655	32573	33089	
1395	0	33466	29669	28280	32672	32967	
1396	0	36644	30672	15330	33056	33232	
1397	0	40696	33666	999	32924	32863	
1398	0	41280	37837	2575	32821	32955	
1399	0	38401	39840	22722	32612	32670	
1400	0	35544	39189	38896	32647	32793	
1401	0	30856	37224	39976	32713	32566	
1402	0	28516	35265	34055	32716	32626	
1403	0	27239	33414	28263	32450	32795	
1404	0	27060	32443	25978	32122	32676	
1405	0	29139	31643	24858	32207	32887	
1406	0	32589	31257	28540	32373	32608	
1407	0	38712	30836	31362	32599	32869	
1408	0	45887	30106	34705	33301	32962	
1409	0	49608	28371	36109	33893	32914	
1410	0	48287	27655	41369	34117	32989	
1411	0	42931	28123	44139	33497	32690	
1412	0	35268	29032	47376	32898	32976	
1413	0	28112	30170	51929	32384	32988	
1414	0	23886	30934	50905	32242	32638	
1415	0	21874	31269	45350	31946	32749	
1416	0	20896	31415	35863	32162	32349	
1417	0	20876	32515	24087	32573	32743	
1418	0	25354	34354	14501	32573	32865	
1419	0	30173	36765	14565	32674	33381	
1420	0	36642	38854	26436	32428	34483	
1421	0	42452	38843	34720	32261	34443	
1422	0	45860	37062	31147	32486	34144	
1423	0	43292	34414	25524	32955	33026	
1424	0	37760	31312	24071	33340	31239	
1425	0	31994	31213	30846	33863	30306	
1426	0	26044	32985	36495	33545	32005	
1427	0	20234	34984	32352	33325	32424	
1428	0	16603	35847	28222	32941	31557	
1429	0	15608	35981	27694	32392	30893	
1430	0	16853	36723	32198	31297	32097	
1431	0	22264	37580	37773	31354	32792	
1432	0	31304	37328	39152	31994	32957	
1433	0	44312	35800	35417	33959	33405	
1434	0	54668	33164	36898	35525	33426	
1435	0	58212	29264	39081	35004	33242	
1436	0	53956	25805	42965	33336	33333	
1437	0	45895	23110	44775	32532	33095	
1438	0	39405	21621	35067	31869	33264	
1439	0	33392	21349	24918	31719	33012	
1440	0	28952	22481	20429	31620	33202	
1441	0	25264	25176	19869	32208	33165	
1442	0	21186	28606	25001	32647	32828	
1443	0	19490	31149	36320	32756	32989	
1444	0	21660	33718	47644	32569	33025	
1445	0	24701	36032	50417	32775	32898	
1446	0	27236	36803	39724	32802	32720	
1447	0	29189	37351	31871	33117	32735	
1448	0	30040	37765	24983	33294	32787	
1449	0	31163	38740	18354	33269	32772	
1450	0	30269	38661	18355	32861	32685	
1451	0	29992	37479	18731	32729	32822	
1452	0	30537	36406	26220	32424	32914	
1453	0	31849	36112	35207	32374	32705	
1454	0	36164	35346	39648	32108	33129	
1455	0	40056	34876	41185	32491	32921	
1456	0	41957	33917	42141	32935	33158	
1457	0	42746	32547	34968	32898	32946	
1458	0	43382	31993	27101	33194	33170	
1459	0	40525	31815	27451	32664	32924	
1460	0	37845	31547	35200	32144	32691	
1461	0	34828	31851	40571	32087	32908	
1462	0	32775	31039	39168	33019	32962	
1463	0	31469	29322	38022	33780	32865	
1464	0	30612	28743	37933	33967	32767	
1465	0	31812	28908	40050	33728	32623	
1466	0	32761	30145	39559	32907	32623	
1467	0	31602	32135	36258	32539	32728	
1468	0	29953	34077	33418	32775	32903	
1469	0	29145	33818	24747	32491	32960	
1470	0	29816	33399	14818	32502	32951	
1471	0	30437	33238	20527	32444	32861	
1472	0	27848	32403	28615	32642	32866	
1473	0	26132	32054	31482	32746	32993	
1474	0	25219	32303	33099	32912	33022	
1475	0	25246	33129	36715	32775	32889	
1476	0	28420	33948	39110	32629	32633	
1477	0	34185	33631	36999	32583	33111	
1478	0	38810	33092	38320	32674	32978	
1479	0	40144	31869	36527	33107	33141	
1480	0	38829	31234	29980	33145	33062	
1481	0	36992	30078	23559	32861	32836	
1482	0	34733	30215	19021	32865	32873	
1483	0	32907	30880	22764	32611	32743	
1484	0	33474	33698	31259	32390	32608	
1485	0	35666	36551	38585	32263	32459	
1486	0	36041	38462	38247	32512	32659	
1487	0	35094	38870	34626	32483	32967	
1488	0	34950	37849	36910	32709	32932	
1489	0	34564	33918	42299	33203	32752	
1490	0	32316	30663	46573	33259	32661	
1491	0	30198	29093	45971	33113	32813	
1492	0	29248	28999	41691	32757	32953	
1493	0	27668	29088	29570	32349	32756	
1494	0	24964	29929	18539	31698	32786	
1495	0	23945	31178	15571	32170	33136	
1496	0	24967	32411	18374	32275	33043	
1497	0	27401	33516	26027	32835	32662	
1498	0	31532	33555	30196	33612	32904	
1499	0	35844	33024	34656	33858	32948	
1500	0	40379	31352	36318	33164	32704	
1501	0	40967	30633	32650	32774	32658	
1502	0	40263	31321	29174	32878	32503	
1503	0	40440	33113	30818	32763	32701	
1504	0	38834	34605	38810	32876	32885	
1505	0	35368	35360	44103	33101	32771	
1506	0	28883	33996	41379	32825	32592	
1507	0	22603	31598	37666	32680	32825	
1508	0	20489	30465	34376	32505	32821	
1509	0	21342	31675	32435	32244	32760	
1510	0	22501	33799	34183	32232	32720	
1511	0	25284	35975	31824	32436	32855	
1512	0	31532	37383	29308	32630	32944	
1513	0	39416	37781	24887	32876	32861	
1514	0	45916	37309	21395	32832	32688	
1515	0	48117	36465	25355	32584	32686	
1516	0	47337	35036	35934	32813	32736	
1517	0	43996	33372	43866	33545	32690	
1518	0	40482	30800	44163	33697	32864	
1519	0	34810	27352	36008	33682	32929	
1520	0	29405	24334	26275	32820	32812	
1521	0	28551	24036	25433	32553	32960	
1522	0	30016	25497	26919	32285	33045	
1523	0	33166	28662	36210	32285	32976	
1524	0	36768	31619	36688	32727	32863	
1525	0	35312	34468	34071	33027	32882	
1526	0	30041	36442	34160	32968	32774	
1527	0	26672	37413	37248	32630	32540	
1528	0	23673	36848	35399	32648	32751	
1529	0	20974	35917	28008	32867	33106	
1530	0	21240	33924	21534	32869	33074	
1531	0	26017	30407	23465	33219	32821	
1532	0	31958	27941	24746	32815	32960	
1533	0	37640	28151	29075	32878	32966	
1534	0	41410	29624	34948	32935	33080	
1535	0	41058	31272	41889	32868	33107	
1536	0	35771	31602	45917	32485	33287	
1537	0	31272	32190	40880	32578	33103	
1538	0	31397	32658	33434	32632	32962	
1539	0	33385	32711	27441	32301	33194	
1540	0	32484	33495	24306	32473	32926	
1541	0	32481	34522	26214	32696	32847	
1542	0	33776	35563	28490	33751	32870	
1543	0	33936	36542	36132	33522	32905	
1544	0	34061	36601	40569	32997	32891	
1545	0	33894	34887	43305	32921	32872	
1546	0	33817	32116	45635	32803	32791	
1547	0	34418	30611	45671	32494	32609	
1548	0	34884	31590	44779	31943	32438	
1549	0	34524	33677	42918	31952	32756	
1550	0	33577	35437	32909	32150	32768	
1551	0	33097	36717	24405	31905	33023	
1552	0	30855	37446	22793	32275	33188	
1553	0	29232	38040	23450	33201	32797	
1554	0	28648	37605	17317	33042	32477	
1555	0	29330	36393	10765	32913	32740	
1556	0	31674	35263	12396	32906	32699	
1557	0	36658	33050	23381	32728	32855	
1558	0	39234	30067	34318	33095	32761	
1559	0	39213	26599	39003	33353	32785	
1560	0	36359	24904	45191	33345	32712	
1561	0	32392	24250	51952	33107	32756	
1562	0	27392	24025	52196	32592	33000	
1563	0	22180	24752	47404	32358	32893	
1564	0	19184	28402	40932	32420	32749	
1565	0	20056	32549	31136	32485	32888	
1566	0	24477	36871	22880	32497	33001	
1567	0	30467	39608	12572	32628	33124	
1568	0	36193	39040	10663	33159	32991	
1569	0	40122	36831	17011	33442	32790	
1570	0	43052	34010	29070	33384	32749	
1571	0	44802	31780	38701	33629	32787	
1572	0	43527	31250	44674	32512	32848	
1573	0	39925	31469	45649	32189	32890	
1574	0	34392	32770	44666	32192	32772	
1575	0	30131	34427	42619	31977	32871	
1576	0	26850	34461	38712	31915	32877	
1577	0	25044	34695	31431	31973	32815	
1578	0	25688	34989	28719	32451	32870	
1579	0	27782	35584	23901	33311	32839	
1580	0	31096	36423	20406	33734	32861	
1581	0	34248	35442	23607	33746	32850	
1582	0	38407	32297	31840	33722	32801	
1583	0	41568	27389	39533	34691	32742	
1584	0	40903	23329	35946	34872	32759	
1585	0	38146	22192	33101	33690	32861	
1586	0	36792	24423	33895	32263	32869	
1587	0	34778	27534	34119	32084	32913	
1588	0	30460	29883	28461	31856	32888	
1589	0	27576	32845	26847	31792	32854	
1590	0	26408	35290	30280	31977	33028	
1591	0	25264	36922	37690	31968	32908	
1592	0	25966	37289	39879	32198	32811	
1593	0	29864	35990	37082	32199	32979	
1594	0	34198	34486	37411	32295	32751	
1595	0	35490	33873	32711	32417	32746	
1596	0	35236	33857	25411	32621	32812	
1597	0	33578	35115	28183	32699	32622	
1598	0	32323	36859	30607	32650	32871	
1599	0	32697	37758	32276	32832	32603	
1600	0	32967	38116	38857	32731	32768	
1601	0	32416	37755	43269	32787	32869	
1602	0	32037	36144	38960	32850	32674	
1603	0	31556	33232	28048	33040	32868	
1604	0	30912	29849	21562	32953	32951	
1605	0	31365	28073	26401	32917	32731	
1606	0	31750	27081	36094	32938	32978	
1607	0	32208	27919	38239	32953	32765	
1608	0	32819	29693	31781	33155	32699	
1609	0	33453	32040	26567	33259	32729	
1610	0	34166	34021	29835	33039	32899	
1611	0	34484	34325	35986	32889	32845	
1612	0	33765	33513	33517	32775	32871	
1613	0	32604	32393	28295	32825	33080	
1614	0	33648	31879	28907	32934	33215	
1615	0	35794	32775	34752	32973	32921	
1616	0	36227	33460	40781	32904	33131	
1617	0	36268	34067	42706	33168	32910	
1618	0	33686	33223	45046	32860	32501	
1619	0	30363	31627	44276	32455	32630	
1620	0	28216	30361	39096	32425	32621	
1621	0	27774	30290	32797	32605	32523	
1622	0	30014	31314	25091	32660	32612	
1623	0	32672	32071	21394	32942	32775	
1624	0	34553	33285	22207	33314	32839	
1625	0	35944	33509	28057	33257	32980	
1626	0	37874	34235	35488	32912	32909	
1627	0	37144	34053	35607	32610	32730	
1628	0	35520	33843	22016	32386	33008	
1629	0	34270	34234	17110	32367	32883	
1630	0	31134	35901	25206	32260	33161	
1631	0	29880	35227	36720	32061	33202	
1632	0	30594	32693	45593	32187	33057	
1633	0	31219	30059	40675	32422	32725	
1634	0	32083	28551	32390	32346	32964	
1635	0	32532	29376	27366	32461	32767	
1636	0	31808	31327	27615	33039	32526	
1637	0	31364	33773	28679	33407	32703	
1638	0	31809	35335	28307	33649	32610	
1639	0	33132	36303	27801	33831	32896	
1640	0	34328	34309	30102	33753	32989	
1641	0	36671	31060	36250	33575	32789	
1642	0	37728	28306	37718	33461	32825	
1643	0	38620	26694	43252	32788	32950	
1644	0	37434	26616	48135	32022	33083	
1645	0	33695	28397	44179	32007	32857	
1646	0	29728	31440	34969	32176	32906	
1647	0	25920	34119	26328	32465	33024	
1648	0	24164	36501	27014	32274	32890	
1649	0	26313	38076	31972	32730	32741	
1650	0	30215	39017	37509	32900	33028	
1651	0	30470	39879	39843	32941	33001	
1652	0	29640	38762	44205	33280	32749	
1653	0	29757	35864	40854	33362	32853	
1654	0	30290	32084	39418	33413	32923	
1655	0	31568	28179	29808	33232	32955	
1656	0	34202	26170	13772	32936	32774	
1657	0	37412	26315	4515	32662	32998	
1658	0	40676	27640	5045	32263	32896	
1659	0	43700	30152	13945	32460	32668	
1660	0	43609	31773	24415	32325	32951	
1661	0	39457	33181	34849	32305	32905	
1662	0	33957	33927	41660	32304	32747	
1663	0	30004	33934	47131	32112	33040	
1664	0	26472	34062	50887	32547	32936	
1665	0	24420	35464	45976	32829	32730	
1666	0	24322	37356	38086	32749	32947	
1667	0	24706	39239	38298	32648	32859	
1668	0	26464	39800	41370	32638	32664	
1669	0	29414	38492	44897	32818	32775	
1670	0	32600	34990	39501	32681	32933	
1671	0	36441	30179	26697	32828	32768	
1672	0	37740	25597	21393	33058	32791	
1673	0	38370	23255	21698	33010	32942	
1674	0	37789	22986	26619	32706	32954	
1675	0	36747	26394	33780	32898	32711	
1676	0	35492	31376	36929	33463	32728	
1677	0	33877	35597	37526	33263	32922	
1678	0	32327	38432	37366	32891	32658	
1679	0	31161	39515	30448	32887	32944	
1680	0	30279	39385	23897	32981	32860	
1681	0	30056	36144	21521	32775	32767	
1682	0	30367	33051	20167	32638	32935	
1683	0	32803	30599	23002	32717	32925	
1684	0	35792	29055	29384	33113	32704	
1685	0	38360	28366	36574	32742	32735	
1686	0	37669	28649	39367	32105	32839	
1687	0	34311	29867	36597	32768	32928	
1688	0	29800	30561	37498	33864	32995	
1689	0	29444	31147	40007	33844	32963	
1690	0	32037	32484	42872	33388	32769	
1691	0	32902	33471	41683	32361	32667	
1692	0	31860	33491	39555	31789	32649	
1693	0	28090	32871	38372	31794	32867	
1694	0	26366	32770	33023	31832	32861	
1695	0	26150	33489	27104	32409	32677	
1696	0	29496	34472	24808	32761	32682	
1697	0	33700	34869	21275	33272	32903	
1698	0	36128	34848	24774	33244	32939	
1699	0	37704	35409	33935	32934	32856	
1700	0	38656	37114	40322	32327	32717	
1701	0	38727	38538	42002	32099	32815	
1702	0	37059	38349	43883	32083	32981	
1703	0	34260	34915	43933	32565	32932	
1704	0	31389	29017	36864	33038	32876	
1705	0	29320	24329	23436	33060	32707	
1706	0	27762	22791	18709	32907	32772	
1707	0	25344	24930	20754	32868	32775	
1708	0	25004	28780	29790	32979	32953	
1709	0	28844	33511	30757	33035	33028	
1710	0	31945	36143	29513	32722	32877	
1711	0	33164	37086	29890	32647	32723	
1712	0	35501	36424	29914	32552	32791	
1713	0	38343	35313	24362	33420	32973	
1714	0	39431	34044	24122	32809	32991	
1715	0	37964	32989	32793	32333	32815	
1716	0	36240	33150	43328	32337	32718	
1717	0	33488	33765	47167	32523	32717	
1718	0	31513	34291	46455	32951	32685	
1719	0	30950	34181	43088	32964	32831	
1720	0	31866	33060	37915	33119	32935	
1721	0	33940	31323	28063	33450	32835	
1722	0	36871	29625	23433	33357	32691	
1723	0	39501	28990	21186	32948	32933	
1724	0	40096	30390	26022	32973	32849	
1725	0	37324	32213	31685	32865	32741	
1726	0	31886	32724	36397	32613	33000	
1727	0	26445	33449	40568	32563	32988	
1728	0	22310	34186	39026	32741	32931	
1729	0	19579	34591	33757	32775	32723	
1730	0	19280	34454	30784	32947	32991	
1731	0	21652	33799	35510	32911	32758	
1732	0	27545	33501	37198	32628	32928	
1733	0	34122	32448	28805	32665	32772	
1734	0	39224	32705	30558	32595	32602	
1735	0	42365	34784	30091	32991	32880	
1736	0	41569	37048	32768	33120	32679	
1737	0	40339	37721	31071	32819	32834	
1738	0	38204	36434	22761	33148	32829	
1739	0	34920	33452	19365	33597	32922	
1740	0	33502	30267	22188	33575	32797	
1741	0	35049	28256	26490	33414	32984	
1742	0	36016	26943	35021	32742	32875	
1743	0	35911	25731	44516	32132	33023	
1744	0	36073	24422	49689	32011	32996	
1745	0	34926	22414	51120	32307	33080	
1746	0	30193	21985	46466	32138	32765	
1747	0	25095	24097	38160	32144	32918	
1748	0	22832	29556	29394	32492	32960	
1749	0	22752	35015	21395	32809	32772	
1750	0	24620	38773	19227	32440	33033	
1751	0	27570	41910	18888	32516	32868	
1752	0	30633	43129	19392	32820	33017	
1753	0	32918	42157	25688	33381	32942	
1754	0	35836	39097	33395	33272	32851	
1755	0	39640	35597	36854	32931	32959	
1756	0	41302	32009	37970	32775	32716	
1757	0	39869	29185	41410	32690	32941	
1758	0	36678	28358	44905	32623	32653	
1759	0	33026	29862	47702	32599	32888	
1760	0	29400	31591	45537	32443	32793	
1761	0	26995	32876	37146	32488	32873	
1762	0	28008	33907	29857	32909	32696	
1763	0	32289	34468	27793	33082	32699	
1764	0	38116	35399	26282	32792	32691	
1765	0	41448	35495	26552	32537	32740	
1766	0	41666	35474	30455	32473	32683	
1767	0	41198	35315	35734	32740	32743	
1768	0	38276	33537	39527	32990	32881	
1769	0	34544	31525	39341	33903	32711	
1770	0	29727	29957	35991	33596	33002	
1771	0	24684	29700	35131	33014	32851	
1772	0	20704	31223	31669	32380	32876	
1773	0	19400	31317	25512	32224	33013	
1774	0	21349	31059	19132	32244	32746	
1775	0	26360	30948	15703	32549	32946	
1776	0	34336	31502	20841	32802	32672	
1777	0	40208	31972	28448	32551	32870	
1778	0	42580	32390	31266	32285	32986	
1779	0	41670	33442	30434	32677	32741	
1780	0	37724	35535	29361	32850	32944	
1781	0	32932	37762	31609	32229	32752	
1782	0	27952	38656	32925	32241	32902	
1783	0	24674	38083	37759	32479	32853	
1784	0	24032	36787	42106	32771	32951	
1785	0	26368	35392	45339	33162	32633	
1786	0	30677	34669	47533	33270	32824	
1787	0	33717	32801	45959	32930	32953	
1788	0	36846	29655	41191	33095	32758	
1789	0	41176	27639	40476	33115	32804	
1790	0	43653	28463	40696	32853	32809	
1791	0	43339	29675	38255	32869	32925	
1792	0	39804	31120	25698	32632	32528	
1793	0	35840	31584	9143	32669	32635	
1794	0	32985	31559	2512	32308	32568	
1795	0	30360	32117	5667	32393	32443	
1796	0	26512	32678	18450	32425	33054	
1797	0	22301	32036	31492	33353	33224	
1798	0	19274	30884	41351	34125	33578	
1799	0	19567	29102	43083	33626	33192	
1800	0	25421	28910	40604	32427	33377	
1801	0	32416	29767	40929	32545	32976	
1802	0	39469	31488	45826	33212	32716	
1803	0	44248	33898	50589	33976	32101	
1804	0	45184	35911	52124	33276	31997	
1805	0	41589	36747	46770	32629	32386	
1806	0	35873	36862	38691	32848	32551	
1807	0	29076	34904	28629	32912	33040	
1808	0	22722	33172	16490	32550	32651	
1809	0	20174	33399	12369	32388	32692	
1810	0	20965	34759	14466	32530	32451	
1811	0	24057	35591	20176	32644	32843	
1812	0	27539	35515	28326	32868	32966	
1813	0	31513	33585	35392	32717	32809	
1814	0	37520	29461	39572	32552	32873	
1815	0	41728	26101	38981	32552	33120	
1816	0	43842	25159	36813	32649	32943	
1817	0	43670	26391	35251	32704	33083	
1818	0	42948	28058	36452	32717	32834	
1819	0	40768	28499	38836	32458	33171	
1820	0	37355	29510	40648	32341	33126	
1821	0	33817	31149	42567	32256	33189	
1822	0	31028	32033	34671	32381	33102	
1823	0	31330	33145	30084	32574	32884	
1824	0	33344	34572	23980	32878	33263	
1825	0	34522	35580	14793	32910	33104	
1826	0	33891	36298	9079	33159	33301	
1827	0	32676	37063	16376	32719	33157	
1828	0	31040	38500	28389	32562	32940	
1829	0	30658	39566	35501	32181	33114	
1830	0	31680	38887	42291	32845	32673	
1831	0	31484	37817	47810	33482	32391	
1832	0	31218	36769	49640	33307	32342	
1833	0	31452	34957	49693	33132	32722	
1834	0	31205	31328	43804	32937	32960	
1835	0	31494	28312	34128	32822	32844	
1836	0	31525	27005	28483	32735	33028	
1837	0	30203	26388	26740	32632	32763	
1838	0	28167	27070	26702	32711	32998	
1839	0	27010	28624	26424	32612	33617	
1840	0	26552	30039	28567	32691	33645	
1841	0	28329	31534	31547	32497	33571	
1842	0	31254	32308	32642	32633	33167	
1843	0	32196	32989	37641	32685	33064	
1844	0	33115	33848	39653	32673	32549	
1845	0	34795	34283	32297	32730	32372	
1846	0	36366	34498	25588	32869	31824	
1847	0	39048	35259	24188	33020	31291	
1848	0	42952	35405	29828	32692	31975	
1849	0	45157	35943	34821	32521	32639	
1850	0	43560	36859	39521	32837	33095	
1851	0	39859	37433	39500	32975	33110	
1852	0	35944	37543	39737	32803	32773	
1853	0	32162	36074	34667	32976	33042	
1854	0	28480	33313	24113	33432	32696	
1855	0	25861	30548	17749	33028	32997	
1856	0	24856	29260	21740	33238	33110	
1857	0	24605	30063	32688	32774	32940	
1858	0	25616	32003	43527	32404	32740	
1859	0	27112	33589	45968	32208	32963	
1860	0	28384	34715	41939	32639	32745	
1861	0	29280	34478	34032	33081	32998	
1862	0	31484	33620	27565	32692	32734	
1863	0	33936	33836	18524	32787	32960	
1864	0	36736	33869	19119	32939	32711	
1865	0	39256	32861	24409	32886	32879	
1866	0	41066	31252	28647	32940	32706	
1867	0	42012	29649	34309	32996	32976	
1868	0	40204	28816	42162	32860	32821	
1869	0	35734	28657	47976	32739	33136	
1870	0	29388	27382	46258	32564	32822	
1871	0	22250	26912	34344	32354	33050	
1872	0	17728	28075	28428	32704	32902	
1873	0	16978	30248	30667	32924	33095	
1874	0	18841	32033	32688	32825	32799	
1875	0	21626	33287	28838	33125	33075	
1876	0	27582	34512	24896	33287	32869	
1877	0	35885	35938	34332	33008	32976	
1878	0	40618	37166	46772	32576	32826	
1879	0	41277	37624	54640	32479	33104	
1880	0	39744	36634	55167	32384	32753	
1881	0	37429	34386	44426	32891	32922	
1882	0	35545	31700	22310	33428	32865	
1883	0	35514	29716	4520	33040	32774	
1884	0	36593	29525	1562	32686	32939	
1885	0	37844	31992	10118	32629	32704	
1886	0	39517	34156	22617	32978	32858	
1887	0	40188	34646	31733	33189	32956	
1888	0	39196	33607	33621	33180	32729	
1889	0	37505	32455	31330	32903	32678	
1890	0	35919	32614	33786	32441	32877	
1891	0	35288	33462	40190	32370	32697	
1892	0	34700	34758	47510	32524	32710	
1893	0	31843	34424	53197	32596	32691	
1894	0	26650	33213	57976	32524	32907	
1895	0	23643	32177	52583	32199	32699	
1896	0	19782	31056	36314	32320	32980	
1897	0	18066	31356	20566	32580	32746	
1898	0	18685	32491	12776	32427	33014	
1899	0	21327	32647	12196	32986	32771	
1900	0	26004	32685	18457	33074	33017	
1901	0	30952	31351	23738	32861	32755	
1902	0	35268	29904	31717	32753	32979	
1903	0	39314	30584	43233	32816	32668	
1904	0	41516	32277	48084	32980	32705	
1905	0	43410	33799	42449	32912	32905	
1906	0	44320	34670	32672	32893	32786	
1907	0	41725	34617	28474	33265	32642	
1908	0	38807	33152	26805	33280	32967	
1909	0	35320	30763	23853	33287	32813	
1910	0	31983	28326	27373	32401	32813	
1911	0	30948	27062	41188	32404	32668	
1912	0	31748	28303	46255	32449	32518	
1913	0	33254	30797	40270	32583	32829	
1914	0	35396	33922	33179	32883	32789	
1915	0	37580	35512	28675	33200	32809	
1916	0	40398	34936	25476	32682	32829	
1917	0	42235	33828	22504	32765	32941	
1918	0	42205	33055	21901	32655	32907	
1919	0	39551	32575	26949	32449	32935	
1920	0	36481	32565	32381	32718	32731	
1921	0	32636	32421	34962	32882	32997	
1922	0	29717	32411	37181	32653	32784	
1923	0	27329	32756	42432	32554	32912	
1924	0	25853	33280	46947	32596	32653	
1925	0	25014	34286	48956	32910	32862	
1926	0	24279	35229	46237	32934	32984	
1927	0	23264	35562	35538	33224	32835	
1928	0	23790	34449	23197	33314	33068	
1929	0	25685	32796	17290	33082	32775	
1930	0	28268	31623	18691	32762	33026	
1931	0	30832	31209	23370	32578	32743	
1932	0	33296	31695	26381	32086	32998	
1933	0	35159	32770	31064	32007	32797	
1934	0	36880	34041	33845	32282	32973	
1935	0	36276	35435	32263	32607	32661	
1936	0	32721	35962	29080	33258	32736	
1937	0	28219	35911	30818	33498	32865	
1938	0	24264	35616	39177	33243	32696	
1939	0	22660	35674	42789	33183	33007	
1940	0	22774	36077	45046	33232	32736	
1941	0	25945	35807	45421	33145	32959	
1942	0	31648	34502	40076	33472	32896	
1943	0	38064	32511	28125	33088	32564	
1944	0	44480	30840	22590	32400	32646	
1945	0	49254	29939	24887	31849	32575	
1946	0	51689	30681	29597	31848	33038	
1947	0	50272	32625	33739	32261	32805	
1948	0	45545	34047	35750	32801	32943	
1949	0	39714	33263	37716	33115	32787	
1950	0	33261	32007	36963	33209	32948	
1951	0	24902	30535	31284	33287	33104	
1952	0	18650	29294	27154	32881	32963	
1953	0	16743	28156	26078	32997	32875	
1954	0	17593	27493	25204	33261	32464	
1955	0	20464	26631	26208	32959	32967	
1956	0	24056	25292	26295	32978	32868	
1957	0	27792	25352	33225	32899	33144	
1958	0	29892	27639	41890	32775	32921	
1959	0	32364	30541	43492	32638	33133	
1960	0	34880	33239	43997	32533	32895	
1961	0	37337	35807	39477	32356	33128	
1962	0	38725	37956	27382	32363	32849	
1963	0	39276	39201	24797	32215	32862	
1964	0	39634	39090	23898	32445	32830	
1965	0	37368	38117	28007	32845	32868	
1966	0	36120	36447	32985	32982	32893	
1967	0	34958	33709	37816	32985	32718	
1968	0	36664	31543	43096	32884	32928	
1969	0	37994	31157	43803	32697	32768	
1970	0	37858	32799	40960	32727	32709	
1971	0	36585	34007	39211	32914	32795	
1972	0	34574	34247	39687	32861	32774	
1973	0	30080	32699	36738	33007	32800	
1974	0	25842	31086	24683	32986	32745	
1975	0	22072	29498	14212	32829	32664	
1976	0	19204	28433	15617	32484	32904	
1977	0	19766	28027	24181	32256	32680	
1978	0	22675	29105	30446	32199	32875	
1979	0	27712	31641	34389	32004	32973	
1980	0	34061	35055	38152	32244	32896	
1981	0	40832	37797	40512	32855	32957	
1982	0	45032	38853	38802	32928	32965	
1983	0	46616	38703	35531	32531	32684	
1984	0	46074	38685	32244	32516	32853	
1985	0	42789	39286	25514	32936	32656	
1986	0	38851	38322	17406	33106	32834	
1987	0	35689	34268	14608	33248	32677	
1988	0	33442	29833	18787	33594	32928	
1989	0	32253	26183	30116	34269	32737	
1990	0	31952	24040	40235	34101	33048	
1991	0	32775	23882	43076	33126	33158	
1992	0	32091	25279	39517	32320	32959	
1993	0	30350	28283	36908	32176	32923	
1994	0	30624	32506	38225	32005	32805	
1995	0	29792	36003	38825	32429	32768	
1996	0	29176	37589	36395	32651	32631	
1997	0	29818	36231	35687	32956	32515	
1998	0	31331	32799	37170	33017	32468	
1999	0	31265	30038	43906	32753	32952	
2000	0	30806	28895	47931	32494	32775	
2001	0	30452	29142	47346	32184	32805	
2002	0	29386	30006	47559	32386	32925	
2003	0	28960	31361	39255	32429	32802	
2004	0	29932	32948	22798	32404	33001	
2005	0	30970	35418	10432	32634	32812	
2006	0	31473	37055	5347	32915	32696	
2007	0	31791	38181	7918	33254	32931	
2008	0	33690	37925	9401	32816	32757	
2009	0	35388	36031	15756	32610	32985	
2010	0	37828	34534	23593	32965	33003	
2011	0	40373	33624	33144	33387	32784	
2012	0	40252	32978	41209	33451	32985	
2013	0	39412	32289	46683	33472	32711	
2014	0	38144	30787	47915	33406	32799	
2015	0	35931	27900	47951	32967	32738	
2016	0	33388	25564	47623	32676	33159	
2017	0	30618	24477	45687	32523	33159	
2018	0	28034	25515	42263	32087	33277	
2019	0	26958	27975	38179	31601	32975	
2020	0	27369	31653	37575	31815	32519	
2021	0	27767	34631	36786	32204	32784	
2022	0	29981	37635	38073	32684	32455	
2023	0	30472	39774	40829	32600	32659	
2024	0	31168	42455	41294	32736	32685	
2025	0	31394	41364	36814	32775	32976	
2026	0	30205	37520	25172	33472	32947	
2027	0	29212	33472	11384	33746	32992	
2028	0	27650	31236	4115	33415	32989	
2029	0	25977	31532	3758	32841	32865	
2030	0	26462	30081	7462	32775	32703	
2031	0	28832	27932	24400	32898	32867	
2032	0	32560	26936	40340	33016	32681	
2033	0	38264	26328	48301	33241	32999	
2034	0	43236	27531	45613	33379	32892	
2035	0	46136	29414	38014	33090	32743	
2036	0	45536	32107	31667	32912	33015	
2037	0	43421	34450	32539	32625	32768	
2038	0	40348	36006	36511	32658	33028	
2039	0	36680	36231	41037	32263	33056	
2040	0	32100	35847	45640	32323	33087	
2041	0	28100	35553	48255	32237	32931	
2042	0	24026	35009	42867	32431	32832	
2043	0	22466	34045	34885	32471	32918	
2044	0	20714	33682	30363	32709	32583	
2045	0	22222	33574	35146	32626	32749	
2046	0	25994	32559	39070	32419	32574	
2047	0	29038	31681	26232	32628	32996	
2048	0	31648	30769	9736	32530	32858	
2049	0	34132	30674	4670	32484	32905	
2050	0	35698	31568	9585	32699	32991	
2051	0	35982	33424	21472	33154	32825	
2052	0	35620	35052	32812	33264	33018	
2053	0	37402	36142	44952	32936	32903	
2054	0	38808	35575	48902	32904	32793	
2055	0	40293	34666	50816	32693	33037	
2056	0	41241	32742	47465	32425	32699	
2057	0	40417	30883	40684	32263	32883	
2058	0	37298	29661	33165	32654	32749	
2059	0	34752	30428	19728	32768	32873	
2060	0	31751	31268	13150	33372	32886	
2061	0	29002	32085	18247	33171	32769	
2062	0	27298	32963	28424	32805	32973	
2063	0	26205	33577	40488	32775	32708	
2064	0	26306	34446	47016	33119	32850	
2065	0	27136	35422	48335	32760	32775	
2066	0	27798	35449	49363	32726	32741	
2067	0	27234	33702	46429	32817	32575	
2068	0	27495	31963	40532	32831	32860	
2069	0	29693	31943	32337	33129	32824	
2070	0	34204	32877	26002	33569	33005	
2071	0	38837	32079	22444	33631	32942	
2072	0	42070	29580	25561	33540	33015	
2073	0	42136	25326	27719	33511	32793	
2074	0	40000	23056	30273	32844	32949	
2075	0	35908	24704	24624	31970	32834	
2076	0	31076	28310	16084	31732	33030	
2077	0	27082	31696	14506	31858	32831	
2078	0	27090	34322	26330	32048	32996	
2079	0	29850	35990	35643	32069	32851	
2080	0	34600	36788	38588	32027	32978	
2081	0	38568	38135	39928	32301	32912	
2082	0	40149	39335	42150	32502	32628	
2083	0	38919	40304	47649	32514	32713	
2084	0	35640	39235	50916	32902	32475	
2085	0	31050	35843	48543	33133	32686	
2086	0	26714	33120	41178	33210	32638	
2087	0	22972	31988	32021	33144	32768	
2088	0	20365	32447	28825	32839	32838	
2089	0	19757	34156	23588	32706	32662	
2090	0	22783	35692	13603	33056	32976	
2091	0	27898	35498	6797	33110	32791	
2092	0	34140	33032	10821	32932	32805	
2093	0	41068	29480	25789	32287	32937	
2094	0	46994	27034	37776	32864	32680	
2095	0	49716	26841	45401	33112	32833	
2096	0	49498	28237	48976	33075	32877	
2097	0	46346	29175	47814	32761	32711	
2098	0	41654	30598	47279	33139	32949	
2099	0	35301	30158	47232	33488	33028	
2100	0	27754	28984	42158	33160	32750	
2101	0	20232	28086	31596	33287	33004	
2102	0	16661	29171	21931	32698	32839	
2103	0	16152	31858	15568	32538	33048	
2104	0	18209	34972	10337	32828	32717	
2105	0	23551	37893	8486	32563	33026	
2106	0	31373	39237	15121	32360	32872	
2107	0	39516	39067	27522	31747	32984	
2108	0	44932	38896	36995	32160	32877	
2109	0	46508	38604	42296	32768	33095	
2110	0	46307	36806	45008	32831	32692	
2111	0	43547	32199	46311	33089	32972	
2112	0	38284	26576	48173	33252	32733	
2113	0	32198	23462	49764	33089	32929	
2114	0	27004	22752	46293	32952	32821	
2115	0	23240	24221	40559	33005	32882	
2116	0	20061	28223	34691	32732	32723	
2117	0	17695	33488	33068	32476	32907	
2118	0	17472	37272	27277	32132	32878	
2119	0	20622	39376	20344	32291	32889	
2120	0	26265	40034	19369	32630	32670	
2121	0	32632	39507	24863	32532	32770	
2122	0	37456	38028	33814	32930	32613	
2123	0	42152	36160	39957	32708	32843	
2124	0	46373	33491	35847	32666	32652	
2125	0	45986	30949	25658	32843	32883	
2126	0	42426	29782	17273	33298	32696	
2127	0	37840	29699	19960	33536	32875	
2128	0	32804	30828	30791	33928	32708	
2129	0	28242	29959	36038	33324	32993	
2130	0	27436	29277	37396	32762	32945	
2131	0	29161	30008	43951	32332	32789	
2132	0	29896	31444	47962	32245	32873	
2133	0	29473	34211	47446	32025	32677	
2134	0	31520	35975	42408	32263	32843	
2135	0	34396	36294	37885	32239	32656	
2136	0	37088	37114	34901	32101	32915	
2137	0	38808	37872	22377	32620	32804	
2138	0	38112	37925	12572	32772	32931	
2139	0	34986	36148	10915	33124	32755	
2140	0	31887	33491	22365	33072	32902	
2141	0	29053	31589	29763	33123	32861	
2142	0	27240	31239	28516	33318	32861	
2143	0	26240	31130	27582	32917	32883	
2144	0	27664	31719	35394	33011	32920	
2145	0	31498	31725	48224	33004	32713	
2146	0	35872	30885	49043	33056	32832	
2147	0	38874	29317	42604	32646	32995	
2148	0	41818	27805	38374	32466	32710	
2149	0	43330	27098	38032	32775	33002	
2150	0	40024	26655	35417	32978	32751	
2151	0	35740	26737	25556	32679	33022	
2152	0	31430	26932	17451	32786	32775	
2153	0	26454	28717	20294	33068	33072	
2154	0	24174	32253	33052	33113	32837	
2155	0	24944	34855	42025	32860	33045	
2156	0	28581	35350	44068	32573	32868	
2157	0	33806	34182	36024	32522	32873	
2158	0	36925	33892	27406	32429	32839	
2159	0	37653	34548	21924	32423	32626	
2160	0	37154	37085	25941	32824	32935	
2161	0	36260	39082	29915	33013	32694	
2162	0	36051	39634	31168	33181	32934	
2163	0	35789	39197	34971	33169	32819	
2164	0	35032	37377	38500	33161	32669	
2165	0	33984	34960	43914	32999	32807	
2166	0	32664	32813	44213	32667	32833	
2167	0	32110	31410	38772	32563	32792	
2168	0	30516	30301	30663	32639	32703	
2169	0	27685	28580	25089	32640	32914	
2170	0	25552	28627	24747	32612	32735	
2171	0	24745	30633	29319	32805	32984	
2172	0	24202	32025	29223	32868	32937	
2173	0	23758	32598	27507	32886	32851	
2174	0	25714	33415	28243	33026	33005	
2175	0	28948	34619	28475	33299	32775	
2176	0	30918	33895	30831	33061	33021	
2177	0	32829	31336	32731	33101	32680	
2178	0	36432	29185	33378	32805	32953	
2179	0	39229	29062	34793	32677	32701	
2180	0	40056	28538	35801	32357	32882	
2181	0	40615	27167	39866	32530	32821	
2182	0	40897	26187	41296	32774	32645	
2183	0	40569	26391	38684	32460	32951	
2184	0	40300	29663	36656	32309	32721	
2185	0	39266	34684	31619	32573	32936	
2186	0	36809	39111	31342	32666	32711	
2187	0	32715	40984	35604	32992	32967	
2188	0	27184	39580	38456	33211	32713	
2189	0	23494	35941	38725	33047	32977	
2190	0	23442	32813	34381	32825	32751	
2191	0	25399	31495	32210	32390	33010	
2192	0	27053	31401	32455	32259	32805	
2193	0	28459	32417	27623	32049	33082	
2194	0	31281	34551	27936	32146	32838	
2195	0	33399	36378	28186	32263	32967	
2196	0	33784	37794	28367	32370	32855	
2197	0	33129	37715	32473	32517	32820	
2198	0	33519	36338	35303	33357	32805	
2199	0	35705	34872	30663	33515	32939	
2200	0	37754	33300	27578	33586	32803	
2201	0	38304	30929	24808	33690	33037	
2202	0	37085	28087	25925	33357	32839	
2203	0	36246	26092	34144	33182	32997	
2204	0	35218	25359	40064	32656	32695	
2205	0	32161	25718	41677	32277	32927	
2206	0	27997	28987	38903	32147	32823	
2207	0	24598	32416	36223	32272	32902	
2208	0	23856	35589	31421	32505	32855	
2209	0	24424	38592	25238	32347	32758	
2210	0	26110	40336	21562	32647	32922	
2211	0	31930	39891	21319	33153	32864	
2212	0	39344	37538	26510	33241	32900	
2213	0	45768	34156	34624	33287	32711	
2214	0	47168	31157	39048	33029	32913	
2215	0	43515	28199	40224	32682	32705	
2216	0	39064	25874	43428	32521	32878	
2217	0	34050	26032	41172	32507	32701	
2218	0	28931	28662	37281	32349	32703	
2219	0	25961	31558	34965	32281	32890	
2220	0	25370	33047	33919	32380	32695	
2221	0	26048	34989	31275	32257	32944	
2222	0	27500	37229	32199	32498	32640	
2223	0	28838	39630	34239	32447	32905	
2224	0	29785	41204	29513	32760	32692	
2225	0	29586	41352	19713	33021	32903	
2226	0	30472	39101	16871	33202	32634	
2227	0	31250	34079	19591	33558	32902	
2228	0	31348	29167	25025	33827	32624	
2229	0	32026	26014	34631	34140	32805	
2230	0	34576	23397	42374	34330	32906	
2231	0	36408	22075	42906	33655	32725	
2232	0	37477	23137	38104	32716	32966	
2233	0	37422	26577	34354	32467	32824	
2234	0	35152	31747	32926	32262	32794	
2235	0	32745	35911	32615	32245	32933	
2236	0	32493	37799	31965	32570	32664	
2237	0	33479	37317	32239	32416	32813	
2238	0	33602	35378	36487	32637	32740	
2239	0	34660	33517	41627	32722	32641	
2240	0	35349	33188	45363	32815	32891	
2241	0	34400	33333	44129	33155	32735	
2242	0	33131	32741	40054	33216	32710	
2243	0	32853	29947	37113	32623	32829	
2244	0	33772	26943	34102	32312	32910	
2245	0	34272	25818	30464	32351	32833	
2246	0	34248	26976	22097	32476	32912	
2247	0	34566	28927	21691	32726	33025	
2248	0	34432	32125	24111	32659	32887	
2249	0	32812	36067	24656	32864	33068	
2250	0	30591	38177	23043	32827	32860	
2251	0	28709	37847	23933	32655	33135	
2252	0	27356	36716	28123	32599	32918	
2253	0	27056	36448	34652	32806	33120	
2254	0	29217	35792	44427	33110	32953	
2255	0	31305	34157	44165	32823	32999	
2256	0	31888	32775	35652	32687	33065	
2257	0	32043	32566	28589	32675	32795	
2258	0	32903	31610	27077	32795	33025	
2259	0	34721	30199	30719	32631	32803	
2260	0	37034	29783	30500	32608	33027	
2261	0	38939	31173	31746	32641	32793	
2262	0	39704	33960	36324	32199	32846	
2263	0	39832	36313	40651	32135	32757	
2264	0	38658	37644	44940	32293	32946	
2265	0	36046	36781	44630	32535	32683	
2266	0	32916	34462	39279	32749	32891	
2267	0	30091	31352	29625	32876	32652	
2268	0	27085	28697	19968	33017	32809	
2269	0	25949	27926	17826	33287	32861	
2270	0	27504	30540	19775	33111	32637	
2271	0	28960	34409	25706	33223	32902	
2272	0	31810	36683	33243	33102	32929	
2273	0	33613	36508	36018	33575	32897	
2274	0	33216	32690	37535	33629	32722	
2275	0	30900	28139	37441	33115	32847	
2276	0	30459	25539	36793	32839	32733	
2277	0	30627	25540	33409	32792	32887	
2278	0	30552	29335	26850	32749	32640	
2279	0	30470	32390	31209	32787	32749	
2280	0	31026	34794	38869	32407	32757	
2281	0	32953	36321	43842	32320	32775	
2282	0	35875	35126	43751	32401	32809	
2283	0	37212	33323	38498	32103	32889	
2284	0	36978	32447	34668	32178	32663	
2285	0	36677	32807	32704	32173	32759	
2286	0	36799	33821	28984	32146	32912	
2287	0	35999	35519	28414	32567	32646	
2288	0	34422	37263	26352	33949	32895	
2289	0	32626	37837	25665	33757	32691	
2290	0	31850	37136	23501	33405	32896	
2291	0	30233	35623	22792	33669	32695	
2292	0	28232	32879	25612	33287	32973	
2293	0	25584	29352	30805	32928	32683	
2294	0	24103	27351	34772	32775	32917	
2295	0	23166	27065	33120	32553	32859	
2296	0	23873	28877	32333	32411	32887	
2297	0	27434	30271	33519	32315	32937	
2298	0	30844	30108	40097	32154	32868	
2299	0	35911	29778	43371	32063	32849	
2300	0	42042	30931	43794	32109	32722	
2301	0	46842	33147	40624	32231	32937	
2302	0	47504	35576	33039	32493	32730	
2303	0	45864	37074	24712	32741	32732	
2304	0	43268	36655	21955	32655	32953	
2305	0	39916	34921	24613	33334	32717	
2306	0	37440	33733	30713	33163	32993	
2307	0	35568	32799	38018	33280	32966	
2308	0	33652	31883	42695	33536	32775	
2309	0	31101	30227	44733	33656	32869	
2310	0	30054	28622	39869	33554	32995	
2311	0	28089	27531	37071	33226	32926	
2312	0	25065	29120	38620	32877	32775	
2313	0	22692	30395	42262	32433	32827	
2314	0	19096	32205	40128	32039	32962	
2315	0	16125	33096	29462	32076	32980	
2316	0	16066	34512	22126	32327	32980	
2317	0	19389	35045	18108	32775	32747	
2318	0	25132	35382	14826	32661	32973	
2319	0	32612	34407	17770	33170	32932	
2320	0	39815	33340	22192	33051	32827	
2321	0	45433	32730	27615	32843	32994	
2322	0	47111	33216	32325	32754	32689	
2323	0	45872	34579	37200	32454	32937	
2324	0	41536	35264	41656	32377	32907	
2325	0	35749	36418	41541	32263	32741	
2326	0	30196	37508	39769	32519	32679	
2327	0	25057	36742	36171	32414	32950	
2328	0	23182	34679	32829	32400	32834	
2329	0	24735	31711	33274	32646	32805	
2330	0	26965	29403	33068	32936	32953	
2331	0	30524	27815	34688	33266	32827	
2332	0	34896	27990	37620	33127	32955	
2333	0	38648	29076	40301	32944	32775	
2334	0	42631	30767	39392	33206	32941	
2335	0	44992	31563	37863	33584	32789	
2336	0	45184	32475	35414	33040	32887	
2337	0	44352	33168	29402	32640	32869	
2338	0	42950	33530	22179	32632	32923	
2339	0	38713	32160	19378	32775	33000	
2340	0	33089	30864	16516	32739	32741	
2341	0	27826	30976	20638	32594	33043	
2342	0	22674	31971	25870	32744	32928	
2343	0	20364	33869	27986	33031	32744	
2344	0	20162	36149	33194	32863	32944	
2345	0	23421	37527	38234	32753	32760	
2346	0	29237	35511	41520	32632	33000	
2347	0	34258	33261	45936	32696	32720	
2348	0	37626	30195	48093	32599	32968	
2349	0	37298	27671	42259	32464	32825	
2350	0	35978	28234	37831	32479	32867	
2351	0	34216	30349	36511	32571	32992	
2352	0	31890	32227	33012	32545	32829	
2353	0	28992	34449	31783	32849	32699	
2354	0	27542	36679	31683	32635	32732	
2355	0	27528	38687	29686	32551	32967	
2356	0	28810	38683	29243	32629	32885	
2357	0	31040	34525	26787	32386	32698	
2358	0	32876	29826	28143	32261	32858	
2359	0	35529	27172	27431	32598	32877	
2360	0	39396	26464	21928	33004	32722	
2361	0	42568	27908	17418	33165	32935	
2362	0	44935	29888	20078	33799	32933	
2363	0	44956	31943	27623	34358	32857	
2364	0	42656	34436	36790	34252	33040	
2365	0	38490	35113	45237	33501	32904	
2366	0	33618	34591	48709	32634	32746	
2367	0	30188	33890	47055	32294	32768	
2368	0	27460	33320	38715	32801	32936	
2369	0	25757	33184	29293	32537	32960	
2370	0	24755	31764	23088	32642	32709	
2371	0	25407	30605	23545	32757	32821	
2372	0	26755	30637	32330	31934	32917	
2373	0	27260	31141	42189	32226	32890	
2374	0	28100	32097	47577	32396	32831	
2375	0	29540	33590	46770	31871	32918	
2376	0	31097	35335	40671	32163	32964	
2377	0	31512	35989	35226	32301	32883	
2378	0	32600	37595	32579	32829	32765	
2379	0	33533	38522	25133	33117	32839	
2380	0	33819	37798	20114	33004	32914	
2381	0	32992	33851	21617	33379	32774	
2382	0	32263	30111	25955	33399	32787	
2383	0	32531	27592	30713	32955	32966	
2384	0	32653	28103	31115	32569	32937	
2385	0	32976	31047	28201	32365	32865	
2386	0	33202	34188	26247	32604	32660	
2387	0	32549	35291	30072	32553	32813	
2388	0	31604	34583	35025	32664	32893	
2389	0	31695	33887	38955	32727	32903	
2390	0	31350	34391	38991	32750	32696	
2391	0	31807	35525	36732	32935	32863	
2392	0	32210	34362	37671	33169	32927	
2393	0	31872	32037	37172	33454	32839	
2394	0	31045	28558	32370	33234	32775	
2395	0	32093	26688	27056	33208	32985	
2396	0	33858	26701	27008	33265	33007	
2397	0	35920	28644	33144	32698	32790	
2398	0	37058	31009	41177	32721	33019	
2399	0	38518	31610	45442	32425	32890	
2400	0	38909	31098	44788	32359	32726	
2401	0	37528	30173	41599	32581	32886	
2402	0	34642	29505	40731	32658	32937	
2403	0	31701	29035	37107	32663	32752	
2404	0	30528	29696	28048	32562	32736	
2405	0	30574	30652	12264	32010	32955	
2406	0	32008	31384	4454	32393	32854	
2407	0	34354	32532	14055	32648	32700	
2408	0	36690	33822	26834	32728	32775	
2409	0	38492	36067	34468	33040	32857	
2410	0	38812	38189	37123	32862	32628	
2411	0	37860	41320	38116	32786	32886	
2412	0	36192	43951	36532	32801	32792	
2413	0	33666	44507	33170	32698	32687	
2414	0	31674	41479	32571	33125	32659	
2415	0	30582	35408	33466	33368	32952	
2416	0	28382	29112	36833	33539	32741	
2417	0	26368	24095	38670	33208	32896	
2418	0	24619	21374	38183	32526	32998	
2419	0	23018	21184	35027	32650	32981	
2420	0	21488	24147	34386	32398	32775	
2421	0	21457	29308	34491	32119	32872	
2422	0	24542	34232	30365	32320	32981	
2423	0	30136	37439	28580	32622	32869	
2424	0	36882	38777	27700	32839	32764	
2425	0	41960	39403	30882	33049	32787	
2426	0	44332	38591	36089	33057	32818	
2427	0	45972	35865	37824	33250	32933	
2428	0	46762	32767	37049	33188	32975	
2429	0	43298	31571	39039	33197	32775	
2430	0	37545	31851	40391	32703	32675	
2431	0	32661	32359	36445	32509	32768	
2432	0	28788	32176	30809	32633	32903	
2433	0	25018	31992	28882	32748	32645	
2434	0	20058	31367	30855	32835	32866	
2435	0	17936	30527	28781	32960	32803	
2436	0	18060	31248	23372	33003	32647	
2437	0	21502	32747	23769	32881	32775	
2438	0	27721	33059	27644	32997	32559	
2439	0	36324	32025	27749	33008	32949	
2440	0	44880	32674	24560	33088	32696	
2441	0	50276	34232	24295	32988	32961	
2442	0	51693	35424	30841	32975	32651	
2443	0	50276	35227	37738	32669	32863	
2444	0	46061	33041	40115	32231	32601	
2445	0	40025	31279	37935	32372	32877	
2446	0	31693	30060	33021	32499	32587	
2447	0	22995	30010	33525	32356	32904	
2448	0	16834	32354	36318	32198	32966	
2449	0	14064	34866	39680	32500	32736	
2450	0	14381	34176	41025	32646	32975	
2451	0	18265	30771	43483	32812	32735	
2452	0	23280	27427	44599	32767	32923	
2453	0	28869	25891	43512	32623	32736	
2454	0	36012	27309	40056	32467	32937	
2455	0	43072	31132	34456	32713	32801	
2456	0	47619	34572	29146	32964	32920	
2457	0	48448	35575	29455	33131	32807	
2458	0	45619	35090	29983	32993	32775	
2459	0	41824	34109	22643	33151	32989	
2460	0	37103	33648	14338	32880	32876	
2461	0	32542	34993	11743	33058	32846	
2462	0	30406	36753	17671	33045	33033	
2463	0	29488	37149	26391	32658	32952	
2464	0	27538	35319	30567	32869	32918	
2465	0	24137	32600	34528	33147	33027	
2466	0	22040	31036	40534	33190	32775	
2467	0	21274	29780	44920	33336	33031	
2468	0	21852	28812	40811	33122	32697	
2469	0	24120	28911	37319	32575	32927	
2470	0	29370	31152	37129	32327	32681	
2471	0	35347	33746	38756	32479	32790	
2472	0	40505	34954	39510	32820	32729	
2473	0	41398	34301	40709	32967	32758	
2474	0	39616	33505	41062	32839	32775	
2475	0	37136	33455	37229	32669	32687	
2476	0	34577	32902	25988	32455	32848	
2477	0	32248	31137	16552	32450	32912	
2478	0	31906	30076	14007	32592	32694	
2479	0	32570	29325	15945	32871	32918	
2480	0	34113	29803	21040	32747	32717	
2481	0	37020	31585	28082	32682	32984	
2482	0	39572	34235	39833	32660	32700	
2483	0	38381	35962	49296	32538	32942	
2484	0	37200	36653	52944	32420	32793	
2485	0	35696	37063	51195	32873	32949	
2486	0	33585	35949	47537	32951	32918	
2487	0	29772	33559	41582	33128	32859	
2488	0	26703	30953	35634	33090	33012	
2489	0	24316	30320	24725	33087	32921	
2490	0	22992	30861	15726	32660	33007	
2491	0	24675	31106	15214	32647	32995	
2492	0	27177	31935	18797	32689	32839	
2493	0	30774	32258	24419	32515	33035	
2494	0	35090	32807	28008	32392	32771	
2495	0	38080	35048	28054	32222	33017	
2496	0	39188	36525	31874	32493	32978	
2497	0	38770	37458	38793	32536	32817	
2498	0	38357	37271	39744	33343	32967	
2499	0	38370	35871	37642	33515	32722	
2500	0	37304	33201	37379	33436	33008	
2501	0	36275	30663	37031	33686	32825	
2502	0	36547	27772	32548	33577	32886	
2503	0	37818	25128	33655	33798	33017	
2504	0	37773	24959	38419	33256	32835	
2505	0	35616	26538	46033	32703	33027	
2506	0	31808	28934	47364	32377	32764	
2507	0	27896	30498	39859	32251	32903	
2508	0	23803	31140	28708	32178	32653	
2509	0	20338	32801	22358	32048	32800	
2510	0	18728	35912	17131	32408	32779	
2511	0	17902	38664	9450	32464	32608	
2512	0	18850	39632	8866	32495	32936	
2513	0	22702	38343	15948	32218	32871	
2514	0	29344	36266	31188	32061	32745	
2515	0	37541	35845	49322	32853	32728	
2516	0	45520	36112	57432	32789	32962	
2517	0	51072	36050	54432	32757	32705	
2518	0	53794	35056	45414	33071	32971	
2519	0	53179	33677	35328	33143	32810	
2520	0	48884	30544	26936	33360	32832	
2521	0	42112	27435	24100	33045	32909	
2522	0	33611	25294	26560	33380	32708	
2523	0	23240	26003	34059	33234	32904	
2524	0	16570	26934	37963	33146	32730	
2525	0	14703	28844	34662	32740	32922	
2526	0	15408	31598	27762	32564	32934	
2527	0	19116	33439	25255	32363	32656	
2528	0	25704	34096	32036	32409	32880	
2529	0	34076	34938	39256	32494	32754	
2530	0	41380	35756	39691	32529	32678	
2531	0	45860	35460	26100	33100	32838	
2532	0	47431	34048	12544	32890	32637	
2533	0	45080	31713	14501	32936	32949	
2534	0	40712	30369	25049	33245	32760	
2535	0	36472	30279	34093	32984	32969	
2536	0	32468	31136	37729	32851	32732	
2537	0	29432	32263	38686	32741	32837	
2538	0	27559	32400	43802	32529	32711	
2539	0	25917	32610	49080	32664	32967	
2540	0	25050	33347	49873	32745	32769	
2541	0	24704	34183	46722	32837	32891	
2542	0	23498	33908	40525	32937	32797	
2543	0	21451	34066	34128	32873	32978	
2544	0	19630	33799	26375	32544	32710	
2545	0	19761	33472	21021	32692	32993	
2546	0	23008	33153	18815	32750	32703	
2547	0	28457	33215	25995	32421	32954	
2548	0	36178	33936	32187	32531	32813	
2549	0	44453	33645	32893	32690	32627	
2550	0	51680	33784	31842	32878	32874	
2551	0	54419	34272	28570	33185	32694	
2552	0	52832	34435	30187	33088	32951	
2553	0	48168	33559	37910	32700	32661	
2554	0	42398	31907	43676	32390	32944	
2555	0	36162	31253	46325	32512	32730	
2556	0	31022	31029	47008	32406	32958	
2557	0	27523	31066	44150	32619	32775	
2558	0	24336	32880	37309	32565	33024	
2559	0	21898	35465	26008	32560	32770	
2560	0	20731	37501	17433	32500	33056	
2561	0	21266	37279	11765	32688	32794	
2562	0	22880	34301	11874	33210	32953	
2563	0	24942	30160	18541	32987	32805	
2564	0	28349	27812	27079	32784	33024	
2565	0	31141	28192	36687	32429	32699	
2566	0	31891	30313	43090	32480	32940	
2567	0	33895	31917	40960	32728	32801	
2568	0	37048	33040	33603	33443	32859	
2569	0	40914	33477	29426	34072	32818	
2570	0	44105	32736	28018	33757	32960	
2571	0	45569	30972	27576	33174	33051	
2572	0	45072	30256	30866	33125	32843	
2573	0	41456	29992	35741	32630	32931	
2574	0	37240	30998	39480	32104	33130	
2575	0	32825	32925	41144	32047	32800	
2576	0	29013	35180	40960	32182	33024	
2577	0	26469	36304	39934	32563	32670	
2578	0	25648	35943	36557	32677	32986	
2579	0	28816	34819	31102	32815	32677	
2580	0	32732	34503	31101	32479	32741	
2581	0	34998	34194	31643	32163	32885	
2582	0	35188	34143	31950	32079	32616	
2583	0	32904	33856	32559	33101	32843	
2584	0	29458	32981	32384	33739	32614	
2585	0	27538	31008	33808	34296	32755	
2586	0	26516	28701	33168	33767	32648	
2587	0	24636	27134	32032	32843	32825	
2588	0	24600	27391	34305	32429	32671	
2589	0	26041	29703	38171	32419	32855	
2590	0	28852	33681	40946	32487	32848	
2591	0	31785	37028	39181	32560	32671	
2592	0	34955	36832	33050	32585	32896	
2593	0	36736	34643	23176	32677	32762	
2594	0	37874	33524	14379	32572	32928	
2595	0	38845	32448	9214	32527	33093	
2596	0	40188	32103	12329	32795	32774	
2597	0	42252	32352	26645	32878	32916	
2598	0	43480	32351	38822	32916	33021	
2599	0	42678	32399	45631	32600	32738	
2600	0	39492	32604	48792	32412	33061	
2601	0	34610	32736	52921	32728	32758	
2602	0	29505	31152	52093	32943	33025	
2603	0	23876	30774	41740	32872	32856	
2604	0	19568	32676	30713	32977	32740	
2605	0	18251	34113	24415	32863	32976	
2606	0	18328	33909	23871	32775	32747	
2607	0	21896	33079	24124	32397	32770	
2608	0	27942	33248	22299	32486	32864	
2609	0	34064	34906	26001	32620	32647	
2610	0	38298	36307	35144	32775	32899	
2611	0	41098	37437	36294	33021	32863	
2612	0	42429	36310	34565	33203	32767	
2613	0	40784	32485	33735	33357	32989	
2614	0	37378	28711	33845	33420	32764	
2615	0	34104	26095	32449	33061	33028	
2616	0	31520	25254	28592	32873	32796	
2617	0	29203	26085	30872	32520	32982	
2618	0	28418	28240	30911	32245	32851	
2619	0	29113	32071	32578	32144	33061	
2620	0	31024	36012	31257	32100	32839	
2621	0	31186	38571	32452	32452	32856	
2622	0	31180	39160	38675	32756	32912	
2623	0	31825	37879	40473	32917	32691	
2624	0	31746	35271	41702	33056	32859	
2625	0	31203	33414	45161	32991	32803	
2626	0	31105	32054	43599	32909	32863	
2627	0	32459	31364	30958	33268	32725	
2628	0	34018	30122	13484	33352	32848	
2629	0	37016	28900	4424	33098	32758	
2630	0	40665	29648	9442	32898	32696	
2631	0	44551	31170	21529	32744	32812	
2632	0	47705	31826	30294	32793	32813	
2633	0	49125	31706	36422	32759	32643	
2634	0	46612	31293	44282	32595	32961	
2635	0	40836	30804	47817	32100	32813	
2636	0	34516	32125	47262	32208	32868	
2637	0	27120	35038	44845	32396	33008	
2638	0	20075	36675	41280	32676	32866	
2639	0	15342	37028	38149	33056	33005	
2640	0	12966	35356	36508	32954	32945	
2641	0	12803	32277	36840	32433	32912	
2642	0	16073	31709	35538	32303	32934	
2643	0	21893	33744	30779	32536	32731	
2644	0	29266	36803	28352	32568	32831	
2645	0	37865	38680	28755	32743	32927	
2646	0	44893	39048	28886	32971	32683	
2647	0	48523	37869	29240	33357	32726	
2648	0	49610	34946	26888	33479	32892	
2649	0	46613	31387	24544	33167	32965	
2650	0	42000	26647	28614	33248	32816	
2651	0	36336	24719	34725	33243	32750	
2652	0	31874	25399	37434	33256	32873	
2653	0	28368	28258	38781	33055	32845	
2654	0	25786	30237	38221	32341	32755	
2655	0	24833	29830	39809	32105	32651	
2656	0	24125	28354	40178	32314	32789	
2657	0	23882	27941	32701	32582	32882	
2658	0	24060	30528	22654	32756	32724	
2659	0	26196	33562	18851	32647	32862	
2660	0	30332	35815	22960	32813	32845	
2661	0	36148	36167	25682	32727	32813	
2662	0	42276	35691	27364	32775	32909	
2663	0	45718	35071	27724	32731	32976	
2664	0	46151	35258	27769	32865	32818	
2665	0	43922	35354	32471	32982	32813	
2666	0	40568	34119	40516	32967	33037	
2667	0	36581	32054	47709	32761	32775	
2668	0	33072	30917	48834	32601	32887	
2669	0	30313	31300	41536	32591	33011	
2670	0	28084	33634	35744	32564	33112	
2671	0	25492	35299	32694	32696	32861	
2672	0	23384	36713	30081	32812	32846	
2673	0	22348	37021	24184	32909	32926	
2674	0	20984	36976	19274	32752	32996	
2675	0	19763	36353	16534	32952	32757	
2676	0	20228	34232	24063	33208	32949	
2677	0	23400	30546	33766	33346	32751	
2678	0	27612	28047	39830	33178	32858	
2679	0	33464	27056	40184	32919	32678	
2680	0	39393	27472	38831	33078	32839	
2681	0	44088	28286	37912	33034	32600	
2682	0	46866	30064	41850	32720	32647	
2683	0	46376	31047	44039	32448	32738	
2684	0	43286	31554	41409	32315	32871	
2685	0	38630	32083	40325	32248	32791	
2686	0	33541	33584	40473	32470	32656	
2687	0	29008	34904	36579	32775	32725	
2688	0	26464	35888	24200	32856	32868	
2689	0	25346	36258	7721	32716	32869	
2690	0	25154	36097	7971	33001	32873	
2691	0	26601	35048	18823	32655	32897	
2692	0	28508	34439	27128	32721	32884	
2693	0	30150	33475	35726	32725	32961	
2694	0	30644	32542	41556	32480	32656	
2695	0	31634	32028	43378	32731	32958	
2696	0	33970	32122	46789	32761	32738	
2697	0	37698	32644	51015	32981	32775	
2698	0	40674	33333	48345	32850	33042	
2699	0	42442	34032	38620	32735	32789	
2700	0	42245	34178	25136	32839	32972	
2701	0	41209	32384	14436	33232	32832	
2702	0	38134	29925	15124	32953	33009	
2703	0	34386	28513	20376	32747	32729	
2704	0	31574	28313	23297	32729	32868	
2705	0	30060	29463	26642	32504	32775	
2706	0	30068	31801	31730	32647	32950	
2707	0	30979	33765	34835	32807	32799	
2708	0	32152	34325	36730	32895	32918	
2709	0	33060	34761	40455	32990	32774	
2710	0	32820	35460	42499	33127	32829	
2711	0	31799	35293	40481	32973	32895	
2712	0	30215	33982	36000	32914	32972	
2713	0	27945	31589	30774	32960	32991	
2714	0	26290	30308	31068	32801	32710	
2715	0	26883	30633	35795	32460	32928	
2716	0	29643	31874	38839	32334	32672	
2717	0	31331	34354	40307	32450	32903	
2718	0	31620	36841	38069	32647	32643	
2719	0	31086	37965	34626	32533	32770	
2720	0	30795	36137	27758	32775	32664	
2721	0	30901	32068	20005	33127	32892	
2722	0	31952	28060	20285	33072	32775	
2723	0	34753	25861	24361	33339	32747	
2724	0	38557	26203	29938	32893	32888	
2725	0	42408	28232	34148	32728	32708	
2726	0	44784	31615	36060	32637	32961	
2727	0	45348	33975	37116	32759	32770	
2728	0	42460	34883	38608	32805	32739	
2729	0	37824	33625	42010	32993	32991	
2730	0	33180	32357	41235	32959	32715	
2731	0	29906	32796	37845	32665	32809	
2732	0	27049	33893	34453	32473	32852	
2733	0	24088	34957	30116	32947	32859	
2734	0	22320	35768	25898	32970	32663	
2735	0	22838	35471	22590	32860	32903	
2736	0	24776	33645	26226	32742	32805	
2737	0	26914	31184	32377	32364	32701	
2738	0	30168	30144	38802	32339	32859	
2739	0	34432	31565	43206	32506	32701	
2740	0	37626	33871	42822	32745	32880	
2741	0	38736	35427	39670	32465	32684	
2742	0	36090	36336	34881	32720	32933	
2743	0	32040	36616	31707	32877	32947	
2744	0	29464	36728	29511	33234	32763	
2745	0	28509	35125	22108	33433	33005	
2746	0	29420	31632	18973	33317	32954	
2747	0	31525	26817	23269	33050	32869	
2748	0	34272	24070	24775	32833	33045	
2749	0	36008	25469	22198	32522	32857	
2750	0	35982	28775	24276	32792	32878	
2751	0	35638	31695	31965	32924	33001	
2752	0	34463	33389	34969	32829	32821	
2753	0	33092	34393	30312	32857	32928	
2754	0	33618	34821	28244	32725	32961	
2755	0	34736	35943	33270	32923	32746	
2756	0	36468	36920	42864	32701	33051	
2757	0	38684	37248	49451	32521	32775	
2758	0	39085	36139	49722	32445	33031	
2759	0	36918	34071	46821	32485	32711	
2760	0	32960	31842	42318	32597	32908	
2761	0	27756	29762	37381	32610	32672	
2762	0	22729	29134	35103	32797	32952	
2763	0	19772	29123	31234	33210	32841	
2764	0	20501	29735	34301	32987	32821	
2765	0	23371	30930	37263	32771	32680	
2766	0	27052	32845	33009	32902	32805	
2767	0	31321	34957	21104	32796	32672	
2768	0	34533	35713	12868	32902	32784	
2769	0	37692	34918	13094	32869	32685	
2770	0	40540	33714	15386	32393	32705	
2771	0	42748	32242	18363	32647	32735	
2772	0	45312	31256	29365	32747	32914	
2773	0	46698	30752	42640	32856	32722	
2774	0	45369	30789	47919	32738	32967	
2775	0	41183	31303	42134	32775	32921	
2776	0	36712	31980	34816	32656	32699	
2777	0	32833	33112	31517	32596	32794	
2778	0	29232	34093	30055	32723	32892	
2779	0	26756	34499	31391	32763	32855	
2780	0	26951	33931	35013	32831	32815	
2781	0	28502	33202	40178	32646	33014	
2782	0	29484	33430	41586	32233	32839	
2783	0	30382	34555	42682	32348	32985	
2784	0	31131	35694	39904	32587	32760	
2785	0	31632	35567	37851	32890	32903	
2786	0	30466	34355	36566	32801	32795	
2787	0	27036	34756	33442	32768	32713	
2788	0	23926	36039	30311	33058	32839	
2789	0	22110	35805	30949	33312	32681	
2790	0	21760	32115	32358	33563	32851	
2791	0	22642	26917	31890	33438	32821	
2792	0	24876	22276	27769	33635	32816	
2793	0	28745	22193	21665	34226	32977	
2794	0	33652	25542	16426	33240	32688	
2795	0	36600	29317	21217	32413	33003	
2796	0	38008	32071	30395	31840	32892	
2797	0	38424	34792	44968	31502	32964	
2798	0	38596	36577	53466	31495	32864	
2799	0	39858	36744	54936	31878	32969	
2800	0	41350	36122	48935	32884	32732	
2801	0	42920	34374	37959	33267	33000	
2802	0	43474	32648	19498	32962	32920	
2803	0	40572	32028	4873	32889	32736	
2804	0	35779	32827	3518	32960	32952	
2805	0	31265	33922	7246	32674	32901	
2806	0	27755	34102	22656	32769	32733	
2807	0	27846	33369	34152	32571	32861	
2808	0	31388	32525	37831	32575	32769	
2809	0	36528	32175	38234	32749	32835	
2810	0	41122	31979	38567	32905	32848	
2811	0	41220	32150	39739	32985	32807	
2812	0	39673	33071	37265	32966	32933	
2813	0	37248	33637	34381	33123	32843	
2814	0	33755	33400	35385	33000	32935	
2815	0	29712	32121	38810	32533	32850	
2816	0	26176	30813	39479	32353	33038	
2817	0	24064	30554	39556	32341	32786	
2818	0	23370	31525	41146	32404	32903	
2819	0	22944	33397	40315	32193	32960	
2820	0	22904	34905	35584	31890	32792	
2821	0	24221	36223	32330	32253	33042	
2822	0	26092	36972	30756	32571	32799	
2823	0	28616	36781	30388	32683	33013	
2824	0	31239	35753	34087	33086	32903	
2825	0	34322	34144	36231	33376	32933	
2826	0	37201	32219	35128	33076	32742	
2827	0	38953	32301	31399	33152	32991	
2828	0	40864	33177	32981	33254	32760	
2829	0	42617	32354	34906	33371	32898	
2830	0	42368	29294	28226	33299	32935	
2831	0	39836	26651	23497	33225	32745	
2832	0	36090	26244	20685	32857	32937	
2833	0	32233	27640	21907	32658	32724	
2834	0	28975	30082	26375	32467	33018	
2835	0	27088	32833	30423	32250	32743	
2836	0	26664	35311	31920	32586	32879	
2837	0	27032	36109	32550	32976	32809	
2838	0	27754	35787	34694	32898	32898	
2839	0	28925	34119	31838	32909	32807	
2840	0	29416	33395	33000	32575	32927	
2841	0	29488	33049	38260	32327	33023	
2842	0	30486	32746	41605	32368	32741	
2843	0	30749	32381	40591	32351	33031	
2844	0	32114	32564	39123	32611	32805	
2845	0	32717	33639	37843	33597	32824	
2846	0	32688	34164	37735	33855	32851	
2847	0	34024	34857	34907	33209	32719	
2848	0	35658	34856	33062	32962	32813	
2849	0	36999	34433	30865	32556	32903	
2850	0	37955	33594	30128	32531	32646	
2851	0	37805	32717	26435	32787	32921	
2852	0	35632	32023	23983	32919	32665	
2853	0	34549	30674	24675	32448	32948	
2854	0	35138	30023	27732	32292	32807	
2855	0	37661	30080	29439	32676	32903	
2856	0	40332	30421	31089	33266	32921	
2857	0	41023	30215	35613	33485	32795	
2858	0	40388	30287	37511	33402	32997	
2859	0	38397	30997	40829	33123	32807	
2860	0	35368	32807	44267	33031	32995	
2861	0	32804	36079	45597	32882	32952	
2862	0	30786	38620	38902	32880	32678	
2863	0	27732	38258	34145	32785	32768	
2864	0	24720	34498	29996	32804	32938	
2865	0	22397	29957	30053	32121	32691	
2866	0	21124	28414	28598	32016	32956	
2867	0	19250	30048	23016	32452	32748	
2868	0	19684	30791	23379	32813	32633	
2869	0	22848	30345	31354	32999	32775	
2870	0	27556	29509	40469	32887	32904	
2871	0	32560	29167	39909	32668	32688	
2872	0	37212	30144	30512	32323	32839	
2873	0	40648	32632	25531	32357	32933	
2874	0	41415	35287	27629	32216	32722	
2875	0	39234	36633	24827	32496	33027	
2876	0	37416	36359	20083	32407	32833	
2877	0	36194	35779	20211	32775	32967	
2878	0	34906	35819	23477	32935	33005	
2879	0	32738	35936	30333	33106	32833	
2880	0	30784	35335	36337	33035	33016	
2881	0	30237	33909	38898	32745	32770	
2882	0	31404	31349	40314	32645	32993	
2883	0	34664	30189	43128	32765	32753	
2884	0	38352	31361	44704	32717	32860	
2885	0	41564	33055	41697	32589	32864	
2886	0	42432	34157	38979	32711	32665	
2887	0	40152	36031	36398	32876	32833	
2888	0	35578	37799	34621	33084	32582	
2889	0	29891	37121	32495	33063	32652	
2890	0	24813	32680	34832	33243	32769	
2891	0	21966	27120	40846	33066	32610	
2892	0	21425	23686	40967	32896	32812	
2893	0	22914	22418	32882	33130	32749	
2894	0	26312	24685	31875	32773	32752	
2895	0	30890	28298	31751	32180	32997	
2896	0	35820	31152	27441	32320	32861	
2897	0	40100	33259	27407	32317	32899	
2898	0	41457	34657	27875	32799	32945	
2899	0	40036	34600	23314	33063	32738	
2900	0	37876	33857	21329	32827	32851	
2901	0	35190	33114	24046	32871	32967	
2902	0	33869	33423	27911	32815	32743	
2903	0	32477	34586	30479	32688	32705	
2904	0	31200	35608	32215	32820	32920	
2905	0	30022	35219	34543	32722	33005	
2906	0	28709	34170	35847	32800	33049	
2907	0	26781	33560	35753	32698	32933	
2908	0	25543	33241	34893	32658	32775	
2909	0	26998	33726	36135	32569	33046	
2910	0	29909	34810	33986	32432	32963	
2911	0	32832	36500	30212	32717	32825	
2912	0	36014	38727	31040	32903	32627	
2913	0	39258	39461	32576	32639	32788	
2914	0	40684	38582	33025	32927	32926	
2915	0	40628	35019	35284	33120	32921	
2916	0	38104	29534	37797	33365	32915	
2917	0	34304	24795	38275	34141	32873	
2918	0	30794	22481	35883	33967	32719	
2919	0	29254	23019	33833	33127	32741	
2920	0	29599	25596	37023	32557	32891	
2921	0	29664	29453	37710	32391	32869	
2922	0	31528	33703	36624	32367	32720	
2923	0	34043	36032	33330	32571	32804	
2924	0	34797	36190	25341	32873	32929	
2925	0	34570	34255	22651	32671	32848	
2926	0	33922	33351	28293	32384	32671	
2927	0	32930	33339	36234	32203	32903	
2928	0	31175	33887	42087	32305	33018	
2929	0	29154	34706	40545	32487	32923	
2930	0	28803	35258	36423	32435	32797	
2931	0	30818	35771	31269	32607	33088	
2932	0	32676	35649	25062	32865	33063	
2933	0	33115	34731	23419	32902	32899	
2934	0	32912	33542	28070	33149	32908	
2935	0	31972	31750	34344	33323	33035	
2936	0	30878	29538	38173	33414	32992	
2937	0	28570	27802	38173	32903	32868	
2938	0	27163	26701	38905	32789	32755	
2939	0	26301	27117	35593	32803	32789	
2940	0	26554	29575	29458	32848	32997	
2941	0	28513	32537	25265	33089	32929	
2942	0	30738	35373	20786	32853	32738	
2943	0	32611	36626	20216	32982	32839	
2944	0	33913	36142	25632	33145	32975	
2945	0	34442	34675	30545	33053	32879	
2946	0	34873	34055	31781	32430	32670	
2947	0	36548	33829	33430	31964	32926	
2948	0	39936	34496	36047	32059	32807	
2949	0	43844	34984	39568	32380	32664	
2950	0	46324	34460	40925	33055	32856	
2951	0	46326	32775	41338	33001	32896	
2952	0	44329	31027	41445	32949	32839	
2953	0	39879	30361	41375	32803	32907	
2954	0	33772	30613	39421	32455	32930	
2955	0	29080	31718	35397	32301	32672	
2956	0	25596	33066	30529	32512	32957	
2957	0	23348	34073	23627	32474	32921	
2958	0	22870	34066	19529	32743	32845	
2959	0	22954	33823	20568	33157	32855	
2960	0	22634	33168	28319	33644	32920	
2961	0	23432	32583	37118	33296	32865	
2962	0	26208	31969	41373	32963	32758	
2963	0	29838	32223	42950	32679	32801	
2964	0	33593	32614	40587	32463	32959	
2965	0	38010	33375	36711	32603	32931	
2966	0	41270	32866	33378	32706	32861	
2967	0	42333	31203	30727	32962	32799	
2968	0	40956	29465	26146	33033	32749	
2969	0	37483	28855	24545	32651	32807	
2970	0	34221	29996	26394	32667	32799	
2971	0	31894	31399	31119	32557	32653	
2972	0	30322	32611	29581	32579	32675	
2973	0	30474	33631	26689	32673	32678	
2974	0	31471	34713	22498	32672	32660	
2975	0	32520	36429	25971	32739	32745	
2976	0	32192	37331	33399	32743	32708	
2977	0	30667	36189	37457	32686	32731	
2978	0	30234	34023	39027	32695	32755	
2979	0	31713	32775	38910	33051	32795	
2980	0	33513	31361	35895	33596	33014	
2981	0	35608	29533	34721	33522	32994	
2982	0	38033	29213	35296	32789	32884	
2983	0	39339	30239	33235	32390	32701	
2984	0	39864	31303	29876	32117	32691	
2985	0	39992	32303	29479	32367	32629	
2986	0	37816	33965	32263	32446	32915	
2987	0	32466	35752	36006	32664	32843	
2988	0	26798	36010	40368	33106	32658	
2989	0	22005	33886	46978	33412	32922	
2990	0	19034	30854	47788	33248	32861	
2991	0	19000	29066	42662	32890	32694	
2992	0	21275	28376	34192	32851	33015	
2993	0	25842	30124	27024	32775	33063	
2994	0	31881	32621	22308	32571	33006	
2995	0	38338	34990	24174	32884	33001	
2996	0	43404	36260	25254	32770	32835	
2997	0	45910	36061	24108	33085	32801	
2998	0	45924	34160	20711	32964	32973	
2999	0	44333	31283	19634	33314	33016	
3000	0	41768	28989	21751	33089	32979	
3001	0	38137	28114	27938	32470	32930	
3002	0	34685	28840	36301	31938	32721	
3003	0	31055	30617	38847	32499	32702	
3004	0	27756	32775	39491	32469	32978	
3005	0	26584	34763	40727	32240	32991	
3006	0	27120	35640	41607	32413	32953	
3007	0	28531	36063	41151	32646	32741	
3008	0	29901	36344	36371	33081	32935	
3009	0	31032	36691	32764	33335	32984	
3010	0	31284	36015	32163	33479	32825	
3011	0	30970	33473	34566	33415	32827	
3012	0	29919	29292	32892	33210	33005	
3013	0	28764	25914	33012	32668	32785	
3014	0	28790	25634	35243	32345	32861	
3015	0	29812	27930	39165	32029	32963	
3016	0	31210	31123	40327	31943	32731	
3017	0	32125	34040	36699	32171	32991	
3018	0	32240	36276	30241	33020	32969	
3019	0	32416	37907	29048	32959	32725	
3020	0	33351	38821	32009	33167	32829	
3021	0	35228	38170	34284	33263	32928	
3022	0	36449	35408	32464	33246	32645	
3023	0	36824	32445	26798	33049	32791	
3024	0	35596	29979	23583	32767	32865	
3025	0	33848	30010	27783	32517	32888	
3026	0	32537	31355	33671	32501	32877	
3027	0	29642	31979	33631	32509	32742	
3028	0	26755	32107	30509	32403	32658	
3029	0	24962	32660	31831	32606	32676	
3030	0	24499	33415	36730	32767	32748	
3031	0	25437	34635	41497	32834	32863	
3032	0	27074	34887	39563	32775	32928	
3033	0	27664	34192	28930	32918	33001	
3034	0	28482	32887	20612	33200	33049	
3035	0	31176	31959	19731	33154	33051	
3036	0	35034	31597	26819	33141	33044	
3037	0	39052	32124	33156	33052	33124	
3038	0	41750	32415	37211	33058	32999	
3039	0	41796	31943	37074	33045	33019	
3040	0	40878	32190	31421	32720	32855	
3041	0	39643	32763	28514	32371	32739	
3042	0	39378	33871	29018	32630	32755	
3043	0	40065	35032	32367	32758	32944	
3044	0	41572	35778	37123	32304	32943	
3045	0	41723	35009	42962	33007	32912	
3046	0	38274	32740	47303	33715	32869	
3047	0	32541	29458	46830	33328	32795	
3048	0	26672	26707	38784	32785	32704	
3049	0	22252	26547	28144	32579	32646	
3050	0	20570	29015	20504	32300	32682	
3051	0	21544	32093	13588	32644	32698	
3052	0	24210	35143	14875	32434	32749	
3053	0	29191	35355	22831	32902	32804	
3054	0	34631	33556	32868	32939	32851	
3055	0	37775	31290	37547	33059	32829	
3056	0	39346	30567	35227	32607	32637	
3057	0	40684	31479	31559	32459	32680	
3058	0	41416	33411	32987	32283	32883	
3059	0	41368	34582	36196	32343	32930	
3060	0	41872	35360	41479	32979	32724	
3061	0	41711	35280	41735	33426	32809	
3062	0	39469	35293	38835	33346	32858	
3063	0	34666	33687	35393	33401	32953	
3064	0	29090	31239	34272	32960	32874	
3065	0	23466	28942	36541	32297	32684	
3066	0	19592	28074	37592	32441	32775	
3067	0	17635	28369	36101	32391	32815	
3068	0	17810	29325	34720	32434	32927	
3069	0	20366	30935	33090	33025	32893	
3070	0	24910	32263	31361	32603	32851	
3071	0	30192	33973	32449	32363	32775	
3072	0	34589	36084	33593	32191	32696	
3073	0	36824	37416	33519	32386	32674	
3074	0	37555	37444	33811	32571	32668	
3075	0	36688	36748	28551	32839	32833	
3076	0	34307	35271	23106	32875	32961	
3077	0	34248	34329	20260	32685	32869	
3078	0	34966	34704	24231	32653	32793	
3079	0	35143	35783	30947	32825	32793	
3080	0	35658	35847	36905	33009	32745	
3081	0	35652	34393	43072	33084	32786	
3082	0	34632	31702	46735	33240	32868	
3083	0	34656	28478	45534	33140	32987	
3084	0	35907	26795	42459	33218	33079	
3085	0	36859	26196	38023	33204	33122	
3086	0	37198	26416	25888	32944	33021	
3087	0	36662	26455	13276	32989	32950	
3088	0	34205	26730	11918	33747	32903	
3089	0	30285	27534	16201	32943	32939	
3090	0	27157	29880	25554	32337	32852	
3091	0	26479	33113	35568	31985	32865	
3092	0	28785	37419	37938	32002	32762	
3093	0	30138	41031	37528	32205	32717	
3094	0	31687	42647	34471	32455	32747	
3095	0	32919	40921	31877	32553	32775	
3096	0	34146	37050	31601	32449	32871	
3097	0	36926	33203	31149	32848	32866	
3098	0	40033	30845	30578	33045	32757	
3099	0	42464	29760	32693	33204	32821	
3100	0	44524	28568	35602	33040	32739	
3101	0	44421	28235	41048	32921	32976	
3102	0	42216	28856	44904	32967	32909	
3103	0	39110	30077	44498	33065	32720	
3104	0	33744	31536	38361	33428	32713	
3105	0	27516	32593	35859	33242	33027	
3106	0	20833	32877	36708	33249	32945	
3107	0	18103	32753	36606	32991	32889	
3108	0	17348	32797	34207	32659	32903	
3109	0	18099	33460	33765	32219	32793	
3110	0	19674	34130	29643	32135	32673	
3111	0	22722	34469	24661	32213	32717	
3112	0	26619	34166	20366	32940	32849	
3113	0	29325	33935	19319	32902	32871	
3114	0	31129	33563	26011	32839	32709	
3115	0	32054	33638	31325	32865	32813	
3116	0	34331	33587	34734	33007	32793	
3117	0	37181	32807	34154	32644	32741	
3118	0	38994	31954	37086	32392	32911	
3119	0	40120	31222	34439	32403	32965	
3120	0	40680	32247	27131	32615	32850	
3121	0	40705	33691	25898	32945	32767	
3122	0	39975	35551	28085	33199	32702	
3123	0	37633	36379	29915	33351	32784	
3124	0	34772	36815	34028	32882	32847	
3125	0	31568	35805	36955	32844	32855	
3126	0	28808	34244	39040	32448	32898	
3127	0	27502	33464	41623	32117	32927	
3128	0	29908	33749	45228	32386	32849	
3129	0	33063	33967	47972	32641	32722	
3130	0	33061	32129	45511	33113	32741	
3131	0	30766	28830	40643	33141	32995	
3132	0	28256	25224	30882	32859	32960	
3133	0	26806	25477	20583	32839	32811	
3134	0	27356	27549	14180	32962	33093	
3135	0	29296	30826	15636	32881	33063	
3136	0	31337	33415	21995	32950	32846	
3137	0	33958	35460	29247	32539	33013	
3138	0	37062	35987	36547	32706	33339	
3139	0	38692	36541	37657	32659	33331	
3140	0	38396	35971	31885	32651	33442	
3141	0	37233	33694	29240	33177	32071	
3142	0	36755	31289	30888	33356	31866	
3143	0	35762	30171	30297	32877	32745	
3144	0	34498	29881	31858	33047	32847	
3145	0	34342	30503	37161	33171	32921	
3146	0	34416	30838	39188	32985	33111	
3147	0	34227	31340	39679	32693	32799	
3148	0	34848	32527	34612	32504	33040	
3149	0	34224	34141	27591	32522	33044	
3150	0	33592	35237	29135	32406	32839	
3151	0	34381	34603	36989	32346	32775	
3152	0	35502	33416	39863	32509	32916	
3153	0	35964	31587	38519	32741	32855	
3154	0	36359	30727	37063	32719	32704	
3155	0	36303	30717	36738	32588	32871	
3156	0	35353	31573	36306	32337	32711	
3157	0	32138	33648	33240	32557	32748	
3158	0	27758	36080	27732	33042	32948	
3159	0	25908	36660	22105	33140	32984	
3160	0	26596	36380	26054	33056	32997	
3161	0	27078	35933	32211	32914	33277	
3162	0	26765	35395	33867	33139	32741	
3163	0	27033	33270	32691	32946	31999	
3164	0	27069	30987	33307	33089	31899	
3165	0	25792	28713	34547	33116	32579	
3166	0	26695	27699	36306	32902	32911	
3167	0	29256	28481	34759	32843	32989	
3168	0	34080	30215	30586	32899	32832	
3169	0	38648	31425	28546	33250	32898	
3170	0	42800	32127	30099	32444	33046	
3171	0	43993	31580	35832	31565	33088	
