# OpenSignals Text File Format
# {"00:07:80:3B:46:63": {"sensor": ["EMG", "EMG", "EMG", "EMG", "EMG"], "device name": "00:07:80:3B:46:63", "column": ["nSeq", "DI", "CH1", "CH2", "CH3", "CH4", "CH5"], "sync interval": 2, "time": "8:50:56.885", "comments": "", "device connection": "BTH00:07:80:3B:46:63", "channels": [1, 2, 3, 4, 5], "date": "2017-4-28", "mode": 0, "digital IO": [0, 1], "firmware version": 770, "device": "biosignalsplux", "position": 0, "sampling rate": 1000, "label": ["CH1", "CH2", "CH3", "CH4", "CH5"], "resolution": [16, 16, 16, 16, 16], "special": [{}, {}, {}, {}, {}]}}
# EndOfHeader
0	0	32921	32587	33997	32755	32694	
1	0	32838	32683	34277	32711	32955	
2	0	32850	32667	32663	32743	33111	
3	0	32775	32527	32027	32807	33007	
4	0	32634	32534	30765	32833	33003	
5	0	32375	32467	29805	32861	32805	
6	0	32344	32583	30261	32817	33007	
7	0	32559	32691	30949	32791	32925	
8	0	32541	32578	32579	32685	32799	
9	0	32617	32675	32921	32671	33002	
10	0	32827	32691	32807	32643	32727	
11	0	33070	32879	33319	32695	32865	
12	0	33264	32837	33586	32730	32749	
13	0	33052	33031	35094	32787	32732	
14	0	33068	32681	36386	32721	32738	
15	0	33068	32569	36039	32731	32607	
16	0	32927	32678	35419	32801	32775	
17	0	32788	32519	34765	32807	32639	
18	0	32608	32709	33772	32815	32915	
19	0	32548	32570	33325	32915	32805	
20	0	32696	32419	33135	32849	32653	
21	0	32842	32615	33355	32893	32935	
22	0	33036	32655	32741	32975	32677	
23	0	33117	32762	33209	32851	32955	
24	0	33026	32608	33783	32775	32850	
25	0	32809	32549	32231	32805	32928	
26	0	32671	32771	29543	32773	32771	
27	0	32696	32730	27805	32818	32979	
28	0	32544	32619	27685	32875	32871	
29	0	32544	32619	28381	32913	32775	
30	0	32498	32385	29835	32829	33067	
31	0	32503	32770	30295	32915	32839	
32	0	32650	32623	31537	33013	32847	
33	0	32808	32502	34016	32834	32854	
34	0	32874	32531	35355	32717	32761	
35	0	33053	32439	35507	32663	32857	
36	0	33184	32607	35077	32698	32711	
37	0	33287	32715	33999	32699	32847	
38	0	33149	32890	34346	32684	32959	
39	0	32952	32734	34367	32807	32709	
40	0	32853	32593	34331	32787	32983	
41	0	32875	32679	34063	32759	32878	
42	0	32866	32594	33315	32813	32903	
43	0	32667	32717	33155	32753	32887	
44	0	32690	32839	33870	32562	32833	
45	0	32674	32659	34643	32589	32667	
46	0	32746	32621	35651	32509	32936	
47	0	32801	32519	36274	32575	32659	
48	0	32863	32675	35359	32637	32862	
49	0	32702	32706	34047	32876	32850	
50	0	32711	32641	31717	33186	32717	
51	0	32720	32551	28633	33061	32986	
52	0	32456	32502	27366	32821	32746	
53	0	32560	32703	25698	32825	33095	
54	0	32649	32655	28039	32955	33043	
55	0	32532	32557	30855	32925	32818	
56	0	32684	32658	33051	32852	32983	
57	0	32804	32662	35771	32799	32771	
58	0	32745	32775	36964	32723	32807	
59	0	32696	32621	37461	32594	33067	
60	0	32636	32534	34933	32664	32903	
61	0	32877	32711	31458	32927	33019	
62	0	33132	32537	29975	32903	32847	
63	0	32902	32775	28664	32835	32891	
64	0	32812	32711	28863	32917	32850	
65	0	32796	32509	31239	32895	32771	
66	0	32713	32594	32709	32831	32909	
67	0	32621	32558	33383	32743	32667	
68	0	32707	32507	34570	32759	32944	
69	0	32784	32449	36871	32722	32877	
70	0	32874	32669	37058	32711	32763	
71	0	32839	32623	35207	32551	32839	
72	0	32866	32880	31943	32600	32815	
73	0	32888	32687	30389	32699	32751	
74	0	32903	32815	31596	32706	32835	
75	0	32867	32663	30938	32807	32665	
76	0	32774	32775	30575	33154	32885	
77	0	32775	32658	30870	33310	32960	
78	0	32792	32681	31623	32965	32663	
79	0	32583	32467	32757	32734	32907	
80	0	32608	32583	32167	32699	32745	
81	0	32457	32483	31067	32807	33015	
82	0	32414	32654	31915	32947	32903	
83	0	32501	32480	34653	32890	32870	
84	0	32562	32685	35519	32761	33009	
85	0	32549	32481	35615	32639	33063	
86	0	32577	32630	35377	32605	32827	
87	0	32604	32435	33682	32597	33003	
88	0	32708	32511	31653	32658	32694	
89	0	32932	32523	32089	32707	32924	
90	0	33133	32675	32194	32795	32743	
91	0	33200	32594	33583	32839	32774	
92	0	33129	32743	34640	32744	32903	
93	0	33221	32747	34611	32691	32723	
94	0	32999	32737	33739	32758	32756	
95	0	32804	32754	30387	32849	33012	
96	0	32584	32531	29296	32801	32641	
97	0	32518	32683	30143	32844	32853	
98	0	32474	32583	30882	32767	32775	
99	0	32547	32455	30209	32770	32589	
100	0	32688	32625	31657	32765	33010	
101	0	32835	32619	32398	32755	32868	
102	0	32852	32911	32763	32675	32999	
103	0	32935	32835	35307	32683	32757	
104	0	33146	32570	36633	32755	32997	
105	0	33200	32761	36311	32720	32801	
106	0	33101	32688	34931	32865	33003	
107	0	32839	32487	33935	32801	32694	
108	0	32640	32805	33341	32839	32925	
109	0	32442	32689	30878	32923	32728	
110	0	32417	32491	28331	32883	32909	
111	0	32365	32678	30507	32798	32761	
112	0	32457	32719	31849	32717	32854	
113	0	32603	32483	32583	32641	32889	
114	0	32853	32645	33938	32771	32762	
115	0	32795	32679	33287	32717	32759	
116	0	32746	32511	32594	32707	33046	
117	0	32613	32771	34086	32815	32801	
118	0	32608	32753	35391	32766	32985	
119	0	32753	32757	35975	32847	32703	
120	0	32827	32573	35416	32829	32775	
121	0	32925	32379	31165	32775	32694	
122	0	32904	32657	27839	32763	32765	
123	0	32890	32623	24241	32747	32775	
124	0	32921	32697	25547	32678	32887	
125	0	33162	32634	29823	32750	32775	
126	0	33368	32568	33357	32891	32943	
127	0	33232	32761	35005	32835	32749	
128	0	33223	32839	35687	32758	32911	
129	0	33091	32717	35879	32759	32775	
130	0	32864	32643	35695	32775	32762	
131	0	32737	32507	35500	32743	32926	
132	0	32715	32691	34957	32819	32695	
133	0	32631	32727	34192	32871	32881	
134	0	32661	32670	33831	32899	32681	
135	0	32684	32567	33349	32751	32821	
136	0	32595	32523	32709	32711	32902	
137	0	32586	32747	31773	32839	32805	
138	0	32665	32725	31576	32751	32761	
139	0	32638	32766	32033	32771	32774	
140	0	32687	32655	32939	32787	32775	
141	0	32577	32517	33264	32922	32628	
142	0	32603	32659	33219	32887	32976	
143	0	32556	32631	33741	32870	32799	
144	0	32610	32447	33947	32871	33005	
145	0	32684	32583	34457	32770	32967	
146	0	32728	32733	35821	32760	32927	
147	0	32910	32698	35463	32751	32985	
148	0	33052	32643	33943	32895	32861	
149	0	33210	32571	31077	32903	33095	
150	0	33096	32757	29581	32775	32885	
151	0	32875	32690	30459	32741	33179	
152	0	32670	32419	28867	32529	32869	
153	0	32553	32663	27399	32596	33073	
154	0	32525	32683	27559	32885	32758	
155	0	32512	32637	28439	33181	32786	
156	0	32696	32647	30135	33077	32851	
157	0	32761	32574	32434	32974	32702	
158	0	32744	32795	34128	32843	32915	
159	0	32723	32711	34898	32759	32677	
160	0	32789	32441	35178	32691	32879	
161	0	32891	32664	35009	32635	32603	
162	0	32838	32747	35425	32683	32807	
163	0	32860	32635	36069	32741	32659	
164	0	32685	32687	35991	32763	32859	
165	0	32671	32612	34902	32831	32883	
166	0	32663	32746	33902	32871	32803	
167	0	32704	32719	34153	32791	32706	
168	0	32809	32538	32866	32795	32935	
169	0	32963	32643	29785	32766	32726	
170	0	32937	32793	27886	32672	33023	
171	0	33017	32736	29981	32769	32876	
172	0	33144	32666	32084	32957	32985	
173	0	33280	32691	32639	32859	32727	
174	0	33233	32626	34429	32767	32935	
175	0	33147	32693	34386	32707	32925	
176	0	32996	32846	32495	32653	32775	
177	0	32941	32639	30119	32695	32839	
178	0	32952	32755	29749	32833	32805	
179	0	32993	32759	31907	32839	32857	
180	0	32930	32557	33795	32923	32927	
181	0	32925	32691	34548	32851	32902	
182	0	33017	32563	34479	32852	32833	
183	0	33014	32511	35369	32757	32910	
184	0	32988	32675	36182	32767	32863	
185	0	32885	32711	35615	32699	32959	
186	0	32708	32444	35043	32635	32909	
187	0	32710	32623	33750	32547	32807	
188	0	32584	32574	32959	32823	32963	
189	0	32327	32429	29860	33001	32699	
190	0	32252	32499	24854	32955	32754	
191	0	32100	32351	26961	32846	33003	
192	0	32256	32434	29394	32839	32829	
193	0	32408	32357	30439	32766	33029	
194	0	32417	32627	32339	32716	32775	
195	0	32512	32757	33877	32765	32964	
196	0	32515	32663	35287	32640	32751	
197	0	32348	32906	36109	32665	32671	
198	0	32391	32795	36455	32647	32922	
199	0	32459	32577	36659	32629	32666	
200	0	32456	32690	36263	32663	32939	
201	0	32551	32607	35975	32677	32899	
202	0	32560	32817	34311	32767	32689	
203	0	32629	32805	31355	32673	32960	
204	0	32796	32487	29927	32793	32629	
205	0	32910	32793	31421	32942	32831	
206	0	32899	32719	34283	32863	32635	
207	0	32947	32611	32441	32951	32817	
208	0	32727	32801	30535	32833	32727	
209	0	32666	32689	29648	32851	32896	
210	0	32743	32726	28482	32889	32690	
211	0	32804	32711	28795	32797	32903	
212	0	32920	32761	29029	32710	32995	
213	0	32865	32740	30839	32640	32775	
214	0	32955	32651	33451	32803	32839	
215	0	33201	32773	34375	32735	32890	
216	0	33198	32729	34779	32772	32822	
217	0	33104	32570	35123	32735	32945	
218	0	33078	32672	35263	32789	32827	
219	0	32933	32602	33702	32869	32641	
220	0	32888	32453	32762	32807	32927	
221	0	32808	32573	33943	32815	32729	
222	0	32870	32595	35365	32743	32967	
223	0	33017	32898	36658	32813	32710	
224	0	32941	32631	37339	32760	32954	
225	0	32893	32551	36013	32763	32719	
226	0	32801	32583	33204	32911	32981	
227	0	32717	32603	29893	32879	32868	
228	0	32527	32719	29045	33028	32835	
229	0	32547	32461	25822	32944	33058	
230	0	32473	32733	24553	32939	32758	
231	0	32656	32647	28583	32839	32989	
232	0	32744	32440	33823	32627	32738	
233	0	32775	32682	36585	32677	32893	
234	0	32775	32851	37739	32611	32927	
235	0	32939	32539	35447	32614	32775	
236	0	32912	32775	33023	32540	32863	
237	0	32899	32658	31956	32815	32723	
238	0	32809	32467	31523	33311	32953	
239	0	32832	32617	30845	33287	32825	
240	0	32743	32599	30109	33083	32997	
241	0	32775	32509	31725	32760	32897	
242	0	32829	32843	34649	32667	32877	
243	0	32883	32720	35202	32463	32735	
244	0	32805	32607	35975	32512	33061	
245	0	32743	32671	37165	32581	32943	
246	0	32739	32583	37212	32789	32855	
247	0	32566	32583	32933	33099	33005	
248	0	32636	32741	28823	32839	32711	
249	0	32632	32615	28581	32823	32931	
250	0	32576	32653	30019	32630	32860	
251	0	32683	32567	30867	32655	32839	
252	0	32677	32587	30707	32789	32865	
253	0	32664	32605	30621	32867	32679	
254	0	32716	32564	30549	32679	32873	
255	0	32818	32622	32096	32629	32715	
256	0	32920	32615	33853	32640	32935	
257	0	33125	32611	34731	32647	32869	
258	0	33416	32582	34646	32750	32929	
259	0	33420	32443	33184	32839	32693	
260	0	33345	32661	32447	32915	32895	
261	0	33268	32807	33853	33068	32867	
262	0	33016	32583	35499	33001	32753	
263	0	32714	32809	36759	32817	32958	
264	0	32615	32793	37191	32731	32743	
265	0	32569	32603	34737	32843	32742	
266	0	32575	32734	29155	32807	32937	
267	0	32392	32579	27123	32839	32753	
268	0	32379	32428	29277	32726	33013	
269	0	32444	32652	32623	32775	32845	
270	0	32552	32789	34163	32823	33050	
271	0	32818	32537	34455	32721	32735	
272	0	32992	32775	34329	32797	32891	
273	0	32930	32719	35367	32740	32823	
274	0	32865	32659	33903	32717	32983	
275	0	32759	32591	31623	32833	32775	
276	0	32652	32574	30958	32812	32977	
277	0	32670	32643	29791	32845	32681	
278	0	32594	32386	29671	32753	32921	
279	0	32659	32635	30242	32879	32631	
280	0	32921	32685	32146	32797	32879	
281	0	32892	32543	33463	32803	32792	
282	0	32681	32763	33933	32775	32975	
283	0	32591	32588	33496	32903	32877	
284	0	32530	32775	33525	32845	32711	
285	0	32580	32861	34003	32799	32903	
286	0	32581	32859	34819	32739	32743	
287	0	32601	32837	35362	32765	32893	
288	0	32588	32607	34419	32757	32927	
289	0	32650	32706	33837	32687	32615	
290	0	32717	32603	33329	32775	32831	
291	0	32987	32549	34925	32829	32669	
292	0	33304	32671	35002	32819	32863	
293	0	33346	32561	31910	32672	32942	
294	0	33304	32627	28596	32669	32767	
295	0	33124	32727	27579	32773	32967	
296	0	32937	32539	30661	32775	32729	
297	0	32775	32679	30723	32756	32955	
298	0	32653	32827	32051	32759	32725	
299	0	32788	32647	32599	32723	32898	
300	0	32967	32698	32970	32775	32940	
301	0	33073	32861	32431	32871	32775	
302	0	32959	32621	31321	32813	32935	
303	0	32868	32543	31654	32847	32691	
304	0	32623	32722	33027	32825	32911	
305	0	32492	32659	32290	32699	32692	
306	0	32486	32531	31303	32717	32941	
307	0	32478	32687	32535	32845	32933	
308	0	32487	32694	34769	32945	32748	
309	0	32587	32769	35169	32897	32670	
310	0	32759	32687	35506	32800	32946	
311	0	32687	32563	35831	32771	32703	
312	0	32546	32675	34265	32775	32937	
313	0	32400	32697	32399	32809	32967	
314	0	32401	32695	29127	32719	32857	
315	0	32349	32632	28652	32633	33059	
316	0	32349	32377	30933	32600	32818	
317	0	32208	32607	32037	32711	32941	
318	0	32430	32800	31185	32813	32863	
319	0	32804	32675	31851	32809	32775	
320	0	33604	32549	33283	32681	32929	
321	0	34138	32355	34002	32773	32763	
322	0	34247	32594	34951	32750	32824	
323	0	34092	32663	35781	32683	33012	
324	0	33680	32557	35205	32799	32827	
325	0	33104	32611	34663	32927	32889	
326	0	32576	32639	35472	32881	32946	
327	0	32331	32859	36866	32835	32775	
328	0	32440	32707	34984	32807	32877	
329	0	32458	32623	31361	32682	32883	
330	0	32420	32807	29130	32827	32711	
331	0	32455	32652	26955	32937	32827	
332	0	32583	32547	27099	32869	32673	
333	0	32702	32655	29755	32839	32519	
334	0	32678	32541	33343	32726	32829	
335	0	32626	32699	35083	32775	32674	
336	0	32697	32609	35867	32743	32760	
337	0	32688	32799	36107	32767	32915	
338	0	32740	32647	35549	32729	32793	
339	0	32698	32579	33699	32741	32715	
340	0	32716	32807	33183	32853	32825	
341	0	32666	32717	31975	32774	32757	
342	0	32584	32610	30368	32610	32999	
343	0	32414	32775	29995	32679	32805	
344	0	32616	32535	29351	32854	32927	
345	0	32646	32475	29357	32765	32967	
346	0	32648	32563	31419	32793	32895	
347	0	32768	32656	36398	32804	32933	
348	0	32965	32797	40397	32711	32801	
349	0	32888	32533	39171	32767	33007	
350	0	32723	32690	34033	32878	32813	
351	0	32637	32610	29091	32678	33063	
352	0	32515	32573	28283	32765	32891	
353	0	32526	32503	28208	32899	33027	
354	0	32606	32761	26147	32770	32839	
355	0	32707	32747	27177	32775	32921	
356	0	32875	32663	30335	32690	32775	
357	0	33036	32891	33455	32730	32848	
358	0	32930	32893	35283	32743	32854	
359	0	33010	32583	36185	32703	32935	
360	0	32881	32819	35769	32711	32839	
361	0	32877	32619	35023	32752	32839	
362	0	32901	32581	35314	32771	32797	
363	0	32944	32767	35270	32813	32885	
364	0	32843	32519	34498	32855	32933	
365	0	32845	32705	32963	32839	32743	
366	0	32692	32591	32218	32940	33013	
367	0	32716	32737	32029	32878	32870	
368	0	32865	32703	32144	32849	32877	
369	0	32969	32411	32765	32973	32845	
370	0	33122	32579	33902	32847	32731	
371	0	33006	32514	34654	32827	32895	
372	0	32839	32690	34423	32742	32611	
373	0	32818	32735	33714	32747	32924	
374	0	32649	32555	31493	32812	32768	
375	0	32498	32519	28800	32829	32965	
376	0	32337	32767	29005	32663	32797	
377	0	32358	32807	30991	32734	32997	
378	0	32452	32745	33439	32775	32750	
379	0	32540	32583	34129	32791	32935	
380	0	32680	32763	32377	32871	32735	
381	0	32812	32766	31437	32597	32862	
382	0	32992	32583	32034	32691	32629	
383	0	33101	32789	33089	32749	32853	
384	0	33184	32655	33751	32810	32933	
385	0	33125	32615	33903	32807	32751	
386	0	33063	32711	33759	32851	33029	
387	0	32771	32669	33686	32812	33043	
388	0	32717	32647	33959	32835	32851	
389	0	32728	32509	33303	32739	32967	
390	0	32736	32595	33351	32803	32857	
391	0	32727	32551	34503	32910	32849	
392	0	32608	32323	35301	32817	32980	
393	0	32724	32691	37119	32775	32690	
394	0	32845	32762	39312	32747	32886	
395	0	32797	32587	36601	32767	32793	
396	0	32654	32663	32658	32861	32733	
397	0	32658	32706	27328	32753	32928	
398	0	32565	32633	24566	32839	32727	
399	0	32541	32659	22162	32850	32947	
400	0	32474	32583	21592	32639	32903	
401	0	32344	32417	25619	32805	32695	
402	0	32347	32643	30385	32822	32739	
403	0	32368	32599	33563	32832	32852	
404	0	32387	32744	37054	32786	32722	
405	0	32323	32594	38671	32853	32767	
406	0	32512	32704	36758	32803	32967	
407	0	32829	32638	32994	32775	32657	
408	0	33314	32327	32132	32687	32659	
409	0	33785	32679	31911	32723	32925	
410	0	33968	32627	32912	32631	32826	
411	0	33839	32685	34215	32732	32697	
412	0	33510	32623	35943	32865	32859	
413	0	33151	32694	35757	32983	32955	
414	0	33004	32766	34362	32757	32770	
415	0	32981	32613	32832	32851	32667	
416	0	32770	32891	33287	32754	32643	
417	0	32656	32677	34855	32775	32844	
418	0	32484	32871	35525	32773	32770	
419	0	32336	32667	34095	32819	32598	
420	0	32349	32679	32179	32754	32839	
421	0	32249	32591	29449	32629	32991	
422	0	32293	32567	28130	32787	32795	
423	0	32330	32391	28834	32717	32839	
424	0	32666	32709	33523	32764	32902	
425	0	32660	32702	36407	33120	32647	
426	0	32633	32655	36111	33135	32853	
427	0	32595	32533	33117	32930	32974	
428	0	32646	32755	30211	32745	32769	
429	0	32720	32583	30287	32839	33059	
430	0	32743	32711	30333	32869	32807	
431	0	32847	32439	28673	32789	32793	
432	0	32863	32737	29689	32677	33023	
433	0	32620	32787	32896	32809	32925	
434	0	32609	32751	34932	32790	32747	
435	0	32578	32551	35730	32690	32940	
436	0	32873	32903	36154	32687	33059	
437	0	33328	32759	35463	32774	32741	
438	0	33507	32857	35430	32835	32709	
439	0	33497	32664	35447	32803	32947	
440	0	33447	32735	35134	32563	32927	
441	0	33183	32583	34608	32633	32671	
442	0	32847	32327	32348	32775	32870	
443	0	32484	32579	30031	32771	32894	
444	0	32531	32462	28350	32659	32807	
445	0	32512	32631	27715	32725	32711	
446	0	32529	32479	30123	32831	32877	
447	0	32827	32631	32923	32795	32847	
448	0	33055	32739	33922	32835	32643	
449	0	32914	32553	32919	32775	32661	
450	0	32833	33030	32455	32866	32911	
451	0	32846	32839	31414	32899	32711	
452	0	32798	32839	31365	32861	32904	
453	0	32841	32495	33009	32775	32825	
454	0	32853	32667	34962	32733	33079	
455	0	32804	32547	35098	32787	32963	
456	0	32909	32629	35407	32902	32911	
457	0	32765	32509	34911	32863	33079	
458	0	32541	32610	33703	32899	32925	
459	0	32473	32442	33741	32832	32807	
460	0	32448	32449	33884	32839	32967	
461	0	32407	32705	33669	32882	32731	
462	0	32509	32699	33867	32731	32775	
463	0	32448	32839	35378	32726	32685	
464	0	32569	32659	35143	32694	32640	
465	0	32656	32723	32559	32738	32858	
466	0	32793	32603	29475	32762	32767	
467	0	32973	32481	28657	32775	32875	
468	0	32839	32762	28127	32753	32817	
469	0	32725	32573	28023	32723	32801	
470	0	32630	32499	28216	32894	33055	
471	0	32813	32531	29127	32757	32736	
472	0	32818	32595	29806	32672	32890	
473	0	32966	32641	31339	32761	32818	
474	0	32976	32770	32246	32795	32749	
475	0	32871	32618	33942	32861	32863	
476	0	32722	32795	35713	32720	32683	
477	0	32553	32774	37507	32857	32911	
478	0	32475	32744	38779	32845	32898	
479	0	32694	32467	38041	32739	32875	
480	0	33140	32773	36017	32733	32967	
481	0	33415	32707	33746	32695	32743	
482	0	33315	32551	32343	32759	32877	
483	0	33043	32515	32407	32722	32835	
484	0	32725	32743	32733	32696	32697	
485	0	32320	32550	31079	32775	32775	
486	0	31972	32519	30146	32829	32963	
487	0	31939	32463	31345	32809	32767	
488	0	31967	32645	29593	32697	32989	
489	0	32377	32725	29551	32871	32935	
490	0	32716	32579	31559	32974	33039	
491	0	33262	32853	32873	32895	32815	
492	0	33756	32647	34027	32949	33016	
493	0	34058	32673	35518	32775	32890	
494	0	34107	32559	36359	32799	32883	
495	0	33701	32711	34202	32845	32863	
496	0	33163	32658	32967	32855	32737	
497	0	32576	32671	31943	32829	32981	
498	0	32307	32557	31011	32839	32791	
499	0	32434	32877	29655	32647	32879	
500	0	32331	32835	29855	32646	33011	
501	0	32108	32771	30075	32617	32735	
502	0	32118	32612	29322	32734	32997	
503	0	32013	32929	29019	32873	32698	
504	0	32193	32609	32681	32746	32921	
505	0	32221	32550	35841	32775	32691	
506	0	32432	32534	34767	32705	32928	
507	0	32715	32703	33135	32751	32709	
508	0	32953	32576	34135	32739	32977	
509	0	32996	32635	34451	32802	32669	
510	0	33165	32497	33679	32703	32847	
511	0	33479	32612	32583	32903	32979	
512	0	33492	32549	32391	32871	32771	
513	0	33538	32725	33377	32646	32943	
514	0	33653	32711	35210	32745	32691	
515	0	33574	32591	35675	32731	32722	
516	0	33497	32607	35271	32765	32931	
517	0	33145	32605	34951	32767	32769	
518	0	32762	32695	34823	32898	32863	
519	0	32246	32639	33535	32826	32831	
520	0	32070	32695	31833	32754	32879	
521	0	32100	32489	30183	32863	32839	
522	0	32076	32655	31431	32805	32711	
523	0	32194	32502	33320	32704	32951	
524	0	32280	32607	34273	32548	32836	
525	0	32386	32680	33733	32722	32849	
526	0	32631	32450	32477	32868	33037	
527	0	32984	32635	29372	32905	32833	
528	0	33128	32583	28007	32753	32941	
529	0	33328	32417	29245	32773	32667	
530	0	33339	32566	31608	32871	32920	
531	0	33187	32557	33037	32837	32775	
532	0	32908	32519	34095	32826	32660	
533	0	32729	32690	34902	32863	32911	
534	0	32668	32682	35267	32775	32679	
535	0	32568	32757	35245	32797	32955	
536	0	32634	32703	34459	32821	32801	
537	0	32711	32809	33197	32755	32832	
538	0	32626	32557	31976	32702	33008	
539	0	32561	32668	30107	32887	32748	
540	0	32595	32557	29447	32767	33043	
541	0	32612	32583	31129	32682	32775	
542	0	32616	32801	32745	32800	32921	
543	0	32696	32646	33892	32747	33079	
544	0	32733	32707	35602	32678	32991	
545	0	32634	32519	36239	32747	32849	
546	0	32436	32711	33077	32857	32583	
547	0	32477	32929	30677	32885	32547	
548	0	32770	32759	31843	33091	32886	
549	0	33093	32763	32839	33229	32789	
550	0	33076	32455	33651	32924	32697	
551	0	32985	32665	35424	32676	32819	
552	0	32912	32681	36720	32559	32939	
553	0	32847	32682	36344	32643	32823	
554	0	32748	32375	30947	32597	32997	
555	0	32686	32477	27714	32717	32812	
556	0	32644	32675	26128	32676	32946	
557	0	32801	32607	25785	32877	32991	
558	0	32775	32775	28495	32835	32863	
559	0	32775	32589	28730	32726	32799	
560	0	32803	32647	30185	32633	32985	
561	0	32702	32749	32317	32767	33007	
562	0	32800	32567	35097	32827	32802	
563	0	32658	32711	35047	32763	32987	
564	0	32516	32891	35750	32829	32690	
565	0	32582	32701	37405	32739	32919	
566	0	32654	32523	35777	32833	32741	
567	0	32567	32537	31403	32837	32855	
568	0	32635	32557	29063	32803	32871	
569	0	32836	32567	30447	32699	32647	
570	0	33092	32464	33773	32775	32775	
571	0	33083	32415	36835	32759	32912	
572	0	32936	32745	39835	32825	32600	
573	0	33071	32743	40314	32947	32903	
574	0	33140	32415	38509	32871	32695	
575	0	33056	32747	34619	32775	32893	
576	0	32768	32653	26861	32873	32630	
577	0	32433	32751	22382	32736	32835	
578	0	32213	32539	23431	32801	32623	
579	0	32289	32607	29224	32873	32831	
580	0	32587	32830	32395	32827	32639	
581	0	33040	32611	33175	32839	32880	
582	0	33473	32724	34522	32704	32593	
583	0	33516	32855	34351	32696	32861	
584	0	33270	32722	34346	32835	32678	
585	0	33170	33003	34611	32633	32903	
586	0	33082	32717	35185	32654	32866	
587	0	32912	32525	35632	32616	32749	
588	0	32880	32749	35883	32711	32987	
589	0	32997	32551	35007	32753	32789	
590	0	33006	32609	33601	32811	32903	
591	0	32748	32797	32855	32833	32807	
592	0	32475	32683	33069	32793	32839	
593	0	32530	32697	31931	32935	33001	
594	0	32505	32553	30989	32747	32775	
595	0	32616	32534	31417	32607	32949	
596	0	32674	32657	33618	32596	32775	
597	0	32608	32623	36387	32730	32884	
598	0	32554	32535	38595	32844	33038	
599	0	32443	32733	38258	32923	32711	
600	0	32608	32611	35747	32911	32820	
601	0	32580	32622	32033	32951	32871	
602	0	32792	32429	29206	33010	32927	
603	0	32481	32669	26329	32795	32775	
604	0	32521	32578	21231	32801	32879	
605	0	32399	32551	20653	32662	32800	
606	0	32424	32719	24050	32891	32691	
607	0	32367	32514	28637	32811	32984	
608	0	32434	32509	33017	32861	32943	
609	0	32416	32507	35651	32805	32914	
610	0	32340	32835	36926	32813	32807	
611	0	32569	32975	36703	32775	33029	
612	0	32630	32574	36784	32789	32699	
613	0	32817	32797	36431	32717	32775	
614	0	33197	32737	35399	32664	32946	
615	0	33520	32745	33889	32706	32659	
616	0	33644	32711	32750	32817	32866	
617	0	33371	32607	32765	32734	32917	
618	0	33215	32742	34311	32727	32709	
619	0	33136	32552	36258	32675	32977	
620	0	33040	32803	37049	32821	32813	
621	0	33312	32589	37936	32823	32894	
622	0	33256	32685	39205	32805	32946	
623	0	33341	32637	38947	32796	32623	
624	0	33070	32489	34578	32841	32839	
625	0	32652	32592	28999	32758	32619	
626	0	32413	32692	25647	32719	32861	
627	0	32215	32717	22104	32603	32880	
628	0	31931	32668	20082	32811	32992	
629	0	32008	32448	22623	32765	32927	
630	0	32169	32675	26834	32931	33027	
631	0	32414	32603	32433	33071	32886	
632	0	32573	32775	36818	32827	33046	
633	0	32842	32707	37812	32849	32809	
634	0	33191	32573	37048	32837	33049	
635	0	33339	32583	36644	32809	32903	
636	0	33394	32405	36994	32803	32951	
637	0	33101	32731	35760	32819	32737	
638	0	32734	32717	32911	32751	32927	
639	0	32413	32632	32099	32687	32879	
640	0	32285	32455	34055	32758	32665	
641	0	32263	32821	36556	32741	32834	
642	0	32356	32761	35283	32767	32653	
643	0	32486	32711	34152	32775	32839	
644	0	33016	32744	32902	32853	32690	
645	0	33589	32557	29715	32759	32889	
646	0	33859	32745	28985	32755	32947	
647	0	33896	32689	29458	32775	32720	
648	0	33509	32580	30194	32902	32987	
649	0	32839	32343	29823	32803	32757	
650	0	32193	32603	30043	32603	32983	
651	0	32037	32515	31397	32619	32827	
652	0	32110	32647	33377	32755	32957	
653	0	32612	32601	34823	32773	32845	
654	0	33059	32711	35309	32751	32915	
655	0	33385	32918	33511	32679	33025	
656	0	33203	32705	33854	32863	32767	
657	0	32978	32609	34347	32792	32933	
658	0	32764	32583	34343	32787	32979	
659	0	32678	32794	32765	32853	32824	
660	0	32680	32505	31805	32915	32936	
661	0	32628	32577	32850	32887	32967	
662	0	32602	32799	33825	32911	32699	
663	0	32514	32579	33495	32921	32812	
664	0	32540	32839	33491	32818	33022	
665	0	32589	32762	33394	32775	32775	
666	0	32654	32677	34026	32807	32887	
667	0	32804	32519	34962	32687	32889	
668	0	32756	32398	34503	32711	32699	
669	0	32682	32654	33730	32831	32803	
670	0	32700	32527	34261	32797	32834	
671	0	32677	32594	35047	32739	32698	
672	0	32735	32493	32122	32743	32902	
673	0	32641	32847	27829	32829	32675	
674	0	32596	32801	28722	32748	32943	
675	0	32614	32799	31899	32746	32775	
676	0	32697	32605	32487	32731	32751	
677	0	32754	32915	33943	32845	32967	
678	0	32873	32831	34453	32705	32727	
679	0	32757	32740	35250	32677	32955	
680	0	32654	32871	34635	32862	32925	
681	0	32835	32605	29606	32772	32686	
682	0	32855	32717	25333	32801	32869	
683	0	32789	32548	24858	32873	32861	
684	0	32759	32563	26973	32802	32775	
685	0	32817	32619	31408	32647	32708	
686	0	32748	32689	35263	32744	32807	
687	0	32515	32489	35203	32737	32927	
688	0	32263	32437	33734	32723	32950	
689	0	32382	32484	30619	32789	32827	
690	0	32494	32667	28999	32679	32839	
691	0	32571	32647	32645	32823	32839	
692	0	33004	32711	37015	32850	32656	
693	0	33273	32687	39063	32857	32839	
694	0	33184	32809	39309	32805	32863	
695	0	33296	32575	38087	32743	32677	
696	0	33238	32537	33518	32706	32857	
697	0	32922	32760	27126	32843	32944	
698	0	32713	32967	26736	32685	32799	
699	0	32262	32775	31205	32534	32612	
700	0	32376	32567	35694	32721	32863	
701	0	32808	32470	36713	32747	32975	
702	0	32834	32561	37259	32815	32815	
703	0	32978	32717	37805	32855	32639	
704	0	32904	32461	37574	32829	32795	
705	0	32531	32491	36090	32869	32919	
706	0	32160	32466	32647	32898	32967	
707	0	31720	32665	26377	32743	32774	
708	0	31480	32630	20524	32812	33003	
709	0	31379	32709	24071	32741	32953	
710	0	31395	32630	30167	32659	32742	
711	0	32112	32895	34091	32865	32637	
712	0	33427	32606	35203	32833	32775	
713	0	34813	32579	34375	32775	32976	
714	0	36180	32713	31261	32890	32802	
715	0	36542	32679	29737	32792	32775	
716	0	35468	32696	32384	32833	32967	
717	0	34285	32566	34021	32861	33027	
718	0	32992	32643	32327	32815	32971	
719	0	32064	32743	31487	32825	32672	
720	0	31872	32548	35377	32677	32688	
721	0	31909	32515	36106	32623	32675	
722	0	31826	32775	36891	32718	32904	
723	0	31890	32994	37555	32687	32967	
724	0	31867	32799	37895	32775	32883	
725	0	32103	32707	37063	32743	32851	
726	0	32490	32835	34027	32729	32759	
727	0	32805	32805	33232	32775	32710	
728	0	32801	32749	35943	32643	32676	
729	0	32245	32703	37619	32603	32691	
730	0	31766	32583	35935	32479	32899	
731	0	31361	32439	32449	32770	32869	
732	0	30980	32677	26250	32861	32737	
733	0	30836	32539	21744	32933	32907	
734	0	31076	32539	23282	33127	33061	
735	0	31131	32559	25082	33039	33087	
736	0	31509	32541	27554	32967	33035	
737	0	32059	32511	31831	32697	32795	
738	0	33272	32601	33839	32815	32939	
739	0	34941	32615	32121	32691	32999	
740	0	36194	32719	31365	32829	32929	
741	0	36686	32743	32285	32775	32873	
742	0	36664	32594	31879	32773	32766	
743	0	35766	32565	30176	32855	32733	
744	0	34576	32547	31439	32703	32769	
745	0	32926	32551	33829	32913	32890	
746	0	31744	32395	35628	32997	32717	
747	0	31083	32485	37173	32939	32633	
748	0	31227	32663	37917	32850	32625	
749	0	31994	32618	37507	32775	32635	
750	0	32259	32727	35567	32775	32767	
751	0	32361	32770	33625	32775	32845	
752	0	32422	32854	32395	32730	32964	
753	0	32560	32741	32047	32833	32937	
754	0	32589	32450	33735	32859	32694	
755	0	32626	32831	35503	32745	32877	
756	0	32242	32929	37163	32672	32775	
757	0	31888	32873	36665	32673	32931	
758	0	31965	32615	35659	32839	32827	
759	0	32194	32591	32219	32793	32720	
760	0	32518	32629	31379	32815	32975	
761	0	32880	32673	31559	32679	32801	
762	0	33609	32553	30407	32694	32785	
763	0	34438	32571	28047	32943	33008	
764	0	34951	32775	27372	32875	32874	
765	0	34619	32839	26626	32789	32741	
766	0	34498	32641	27330	32973	32917	
767	0	34300	32630	29541	32851	32687	
768	0	34234	32642	32337	32767	32899	
769	0	33990	32891	34726	32791	32681	
770	0	33631	32767	35759	32795	32967	
771	0	33287	32797	35241	32740	32835	
772	0	32533	32399	34785	32662	33028	
773	0	31751	32559	34479	32640	33033	
774	0	31224	32529	33505	32879	32950	
775	0	31186	32704	33633	32876	32998	
776	0	31368	32451	34299	32890	32772	
777	0	31652	32679	34407	32813	32863	
778	0	31931	32791	34347	32903	33014	
779	0	32232	32628	35847	32863	32981	
780	0	32422	32690	37383	32813	32615	
781	0	32449	32651	35107	32771	32768	
782	0	32289	32507	31167	32869	32883	
783	0	32211	32709	29455	32813	32674	
784	0	32327	32613	28487	32661	32741	
785	0	32176	32583	28955	32789	32821	
786	0	32009	32379	31627	32851	32879	
787	0	32222	32409	32914	32839	32933	
788	0	32123	32571	34375	32731	32683	
789	0	32115	32523	34933	32791	32839	
790	0	32021	32639	33836	32642	32919	
791	0	32108	32525	32638	32613	32927	
792	0	32198	32459	32309	32727	32831	
793	0	32209	32679	33095	32685	32609	
794	0	32199	32871	33971	32675	32822	
795	0	32520	32647	32199	32675	32941	
796	0	32662	32717	29291	32683	33065	
797	0	32866	32563	29867	32715	32740	
798	0	33122	32577	33095	32691	32965	
799	0	33306	32667	36743	32659	32805	
800	0	33037	32713	34407	32711	32805	
801	0	32579	32903	34344	32801	32929	
802	0	32315	32889	33563	32775	32707	
803	0	32368	32720	29235	32681	32887	
804	0	32697	32839	25652	32887	32880	
805	0	32895	32775	26737	32821	32676	
806	0	33069	32789	32733	32694	32853	
807	0	33513	32731	38042	32765	32981	
808	0	34013	32785	37239	32770	32681	
809	0	34258	32671	35315	32711	32875	
810	0	34068	32865	35195	32737	32896	
811	0	34121	32617	32163	32789	32818	
812	0	33787	32505	28607	32833	33093	
813	0	33380	32475	26955	32687	32839	
814	0	33053	32627	29866	32831	33007	
815	0	32755	32654	32545	32691	32953	
816	0	32552	32571	34551	32719	32867	
817	0	32370	32690	34439	32775	33105	
818	0	32112	32363	32711	32890	32886	
819	0	32117	32695	32937	32957	32984	
820	0	32168	32511	32089	32831	32939	
821	0	31847	32391	32812	32875	32681	
822	0	31204	32345	33671	32775	32879	
823	0	30665	32281	33926	32775	32675	
824	0	31001	32561	32359	32852	32775	
825	0	31717	32454	33013	32775	32929	
826	0	32839	32482	35241	32727	32717	
827	0	34498	32651	37272	32823	32828	
828	0	35774	32773	36662	32835	32957	
829	0	36395	32818	33959	32751	32634	
830	0	36069	32642	29824	32706	32945	
831	0	35207	32607	29170	32885	32675	
832	0	34403	32571	30148	32848	32865	
833	0	33645	32641	31437	32807	32677	
834	0	33120	32731	28945	32949	32916	
835	0	32450	32839	28613	32761	33035	
836	0	32122	32765	31568	32621	32745	
837	0	32215	32595	35042	32681	32889	
838	0	32331	32937	37135	32763	32678	
839	0	32191	32860	37499	32771	32987	
840	0	31802	32803	36743	32807	32833	
841	0	31536	32807	35095	32823	32633	
842	0	31500	32637	34330	32729	32713	
843	0	31775	32851	33487	32755	32795	
844	0	31469	32719	31108	32789	32537	
845	0	31187	32601	31367	32787	32724	
846	0	30888	32414	32943	32705	32871	
847	0	30548	32647	31711	32837	32581	
848	0	30450	32691	32198	32767	32823	
849	0	30783	32607	34691	32711	32773	
850	0	31789	32771	33381	32846	32677	
851	0	33116	32681	29605	32827	32912	
852	0	34103	32479	29379	32751	32915	
853	0	34256	32647	33176	32922	32627	
854	0	33881	32658	34779	32799	32798	
855	0	33531	32831	33496	32631	32941	
856	0	33347	32747	31995	32763	32875	
857	0	33387	32579	31303	32759	32865	
858	0	33477	32775	30846	32759	33052	
859	0	34089	32739	34867	32669	32775	
860	0	34951	32775	36039	32722	32946	
861	0	34800	32621	32434	32739	32961	
862	0	34050	32503	30173	32775	32767	
863	0	32940	32631	26597	32860	32981	
864	0	31536	32647	26904	32813	33007	
865	0	30149	32536	34051	32775	32871	
866	0	29277	32524	37755	32828	33107	
867	0	29640	32535	36555	32850	32863	
868	0	30944	32517	34183	32967	32868	
869	0	32432	32662	30331	32932	32987	
870	0	33097	32615	28469	32805	33021	
871	0	33218	32569	32525	32853	32869	
872	0	33496	32607	33251	32823	32791	
873	0	34352	32387	29289	32759	33019	
874	0	35333	32699	28456	32701	32769	
875	0	36441	32823	30633	32917	32915	
876	0	37329	32895	29615	32803	32819	
877	0	37245	32868	32195	32775	32675	
878	0	36301	32729	34551	32674	32769	
879	0	35009	32825	34979	32767	32982	
880	0	33500	32733	34115	32775	32886	
881	0	32249	32809	31484	32729	32641	
882	0	31388	32470	33419	32749	32751	
883	0	31090	32397	34327	32775	32881	
884	0	31307	32603	34651	32925	32946	
885	0	31705	32447	35936	32882	32690	
886	0	31917	32557	36985	32871	32937	
887	0	31685	32390	36535	32715	32801	
888	0	31393	32561	36813	32695	33049	
889	0	31088	32683	37792	32641	32930	
890	0	31076	32471	36293	32711	33025	
891	0	31378	32839	31655	32743	32637	
892	0	31856	32902	31983	32698	32872	
893	0	32376	32839	34431	32695	32601	
894	0	32666	32467	34498	32749	32665	
895	0	32685	32692	35783	32797	32863	
896	0	32134	32775	34310	32912	32741	
897	0	31643	32722	28966	32856	32675	
898	0	31456	32861	26697	32839	32731	
899	0	31764	32690	30572	32836	32805	
900	0	32377	32658	33943	32809	32914	
901	0	32902	32903	33309	32805	32775	
902	0	33609	32829	28278	32950	32699	
903	0	34076	32593	29053	32826	32883	
904	0	33625	32567	30463	32613	32941	
905	0	32462	32311	32604	32831	32882	
906	0	31624	32229	32771	32922	32745	
907	0	30980	32438	30651	32799	32996	
908	0	30338	32478	32253	32805	32907	
909	0	30178	32525	34685	32615	32745	
910	0	30567	32365	34679	32527	33007	
911	0	31666	32566	34479	32491	32745	
912	0	33663	32651	32541	32716	32967	
913	0	36034	32775	29255	33207	32873	
914	0	37664	32647	30921	32938	32860	
915	0	37568	32826	33631	32738	32973	
916	0	36289	32834	35831	32711	32813	
917	0	34860	32883	38016	32765	32801	
918	0	33596	32723	38279	32719	32947	
919	0	32340	32827	40925	32809	32803	
920	0	31769	33227	43286	32890	32671	
921	0	31216	32871	34851	32909	32883	
922	0	30981	32992	21456	32913	32732	
923	0	31134	32501	9301	33016	32928	
924	0	31456	32580	13021	32815	32945	
925	0	31403	32591	20437	32611	32763	
926	0	31332	32407	29028	32713	32805	
927	0	31027	32191	33942	32789	32903	
928	0	31426	32400	37031	32728	32624	
929	0	32870	32643	39863	32768	32851	
930	0	34823	32771	32477	32768	32696	
931	0	36090	32589	32040	32789	32930	
932	0	36368	32634	39592	32725	32727	
933	0	35554	32839	41699	32717	33015	
934	0	33968	32995	40370	32599	32877	
935	0	32143	32955	36023	32577	33061	
936	0	31221	33159	39075	32784	32719	
937	0	31035	32991	43692	32765	32941	
938	0	31401	32564	39277	32847	32927	
939	0	31898	32422	29203	32806	32937	
940	0	32662	31865	24782	32889	32937	
941	0	33574	31847	22840	32984	32847	
942	0	34506	31960	21771	32813	33021	
943	0	35277	32093	23549	32547	32754	
944	0	35264	32489	26866	32623	32793	
945	0	34008	32803	32833	32703	32912	
946	0	33140	32893	35711	32733	32685	
947	0	32301	33005	35847	32745	32643	
948	0	31874	33082	35533	32745	32848	
949	0	31419	33038	35369	32807	32831	
950	0	31232	32711	34674	32835	32735	
951	0	31261	32803	32889	32835	32742	
952	0	31218	33027	32735	32839	32937	
953	0	31576	32930	34863	32917	32999	
954	0	32199	32711	36307	32869	32807	
955	0	33112	32775	36515	32775	33024	
956	0	33824	32613	37243	32696	32863	
957	0	33684	32617	38691	32696	32715	
958	0	33211	32381	38407	32706	32939	
959	0	32245	32593	37200	32775	32701	
960	0	31940	32646	36778	32756	32701	
961	0	32331	32795	36832	32757	32987	
962	0	32278	32666	33408	32835	32711	
963	0	31824	32749	29063	32807	32771	
964	0	31284	32470	26419	32683	32685	
965	0	30610	32451	26661	32825	32882	
966	0	29955	32245	24948	32825	32749	
967	0	30159	32485	27546	32744	32917	
968	0	30927	32614	35002	32661	32955	
969	0	32250	32793	37255	32719	32787	
970	0	33783	32622	37923	32823	32735	
971	0	35508	33022	35055	32775	32983	
972	0	36965	33057	28249	32843	32839	
973	0	37188	32992	24254	32748	32877	
974	0	36640	32999	26855	32883	32717	
975	0	35984	32868	27207	32753	32863	
976	0	35064	32651	26281	32833	32887	
977	0	33736	32658	29995	32730	32821	
978	0	32297	32494	35142	32863	32863	
979	0	31117	32518	36935	32903	32903	
980	0	30449	32525	34223	32961	32955	
981	0	30717	32643	29624	32871	32919	
982	0	31354	32639	30238	32829	32913	
983	0	32150	32793	33079	32833	32809	
984	0	31496	32575	35280	32775	32839	
985	0	30404	32362	38722	32883	32908	
986	0	30031	32433	40551	33062	32671	
987	0	30436	32249	40934	32807	32931	
988	0	31813	32321	38425	32672	32642	
989	0	33420	32383	36435	32459	32853	
990	0	34400	32475	35143	32543	32964	
991	0	34930	32868	29781	32674	32728	
992	0	35416	33035	19874	32733	32944	
993	0	34514	32667	19203	32805	32746	
994	0	32704	32685	27555	33230	32858	
995	0	31349	32403	32000	32983	32733	
996	0	30876	32390	33469	32633	32674	
997	0	30968	32690	34816	32679	32923	
998	0	31664	32823	36167	32694	32655	
999	0	33008	32927	37261	32601	32775	
1000	0	34164	33191	35363	32658	32878	
1001	0	34281	33169	32689	32775	32632	
1002	0	33988	33029	31195	32833	32952	
1003	0	33460	33061	31312	32868	32697	
1004	0	32865	32723	36157	32837	32982	
1005	0	32312	32566	38038	32939	32943	
1006	0	31602	32285	38022	33075	33003	
1007	0	31172	32147	36111	32869	32918	
1008	0	31748	32045	36057	32549	32850	
1009	0	32509	32406	33687	32619	33092	
1010	0	32908	32416	28812	32768	32809	
1011	0	33082	32613	26498	32870	33030	
1012	0	33680	32672	33022	32838	32827	
1013	0	34990	32958	35686	32805	32703	
1014	0	35821	33085	35352	32711	32877	
1015	0	35349	33351	40189	32722	32760	
1016	0	34490	33466	42064	32775	33025	
1017	0	33181	33458	37515	32739	32879	
1018	0	30942	33223	32093	32793	32771	
1019	0	29812	32904	17576	32850	32900	
1020	0	30203	32119	7557	32827	32696	
1021	0	31261	31892	15317	32996	32969	
1022	0	32984	31619	26685	32786	32678	
1023	0	34277	31570	33521	32702	33027	
1024	0	35020	31747	37517	32744	32901	
1025	0	35823	31930	40119	32702	32734	
1026	0	35724	32410	34512	32664	32941	
1027	0	35448	32710	29023	32681	32711	
1028	0	34449	32999	31064	32711	32909	
1029	0	33057	32914	35843	32679	32913	
1030	0	31477	32730	41116	32708	32832	
1031	0	30476	32930	46478	32691	32863	
1032	0	30326	33535	50599	32775	33004	
1033	0	29782	33379	48037	32736	32992	
1034	0	29374	33266	40656	32736	32759	
1035	0	29218	32921	30616	32797	32763	
1036	0	30276	33191	22823	32829	32950	
1037	0	31584	33054	24963	32748	32731	
1038	0	32410	32515	27225	32978	32763	
1039	0	33092	32344	18805	32896	32974	
1040	0	33272	31951	12945	32647	32679	
1041	0	33133	31765	18461	32979	32886	
1042	0	32118	31623	25347	32736	32907	
1043	0	30682	31961	30291	32694	32630	
1044	0	30475	32607	32807	32850	32839	
1045	0	30678	32875	35517	32827	32935	
1046	0	31746	33145	37225	32850	32687	
1047	0	33602	33357	39267	32909	32937	
1048	0	36472	32966	39174	32826	32695	
1049	0	38855	32669	37383	32735	32813	
1050	0	39912	32335	35187	32751	32845	
1051	0	39083	32217	34585	32930	32722	
1052	0	36931	32011	35751	32992	32967	
1053	0	34736	32237	35527	32839	32660	
1054	0	32839	32515	37618	32825	32917	
1055	0	30879	32345	38870	32683	32790	
1056	0	30888	32759	35504	32612	32921	
1057	0	32680	32854	33239	32627	32963	
1058	0	34387	33310	34208	32739	32873	
1059	0	34368	33347	32903	32702	33008	
1060	0	33464	33376	28602	32796	32903	
1061	0	32201	33041	28076	32733	32931	
1062	0	31162	32736	31391	32775	32977	
1063	0	30386	32416	33853	32812	32859	
1064	0	30081	32551	39554	32870	32820	
1065	0	29951	32448	41007	32827	32911	
1066	0	29397	32565	35932	32805	32733	
1067	0	29833	32675	30742	32775	32923	
1068	0	30560	33091	27136	32681	32663	
1069	0	31361	33282	27751	32835	32953	
1070	0	32361	33335	28155	32603	32923	
1071	0	33273	33323	32127	32724	32595	
1072	0	33615	33093	34311	32747	32685	
1073	0	33724	32807	32682	32898	32881	
1074	0	33859	32391	31985	32839	32667	
1075	0	33781	32327	34352	32723	32755	
1076	0	33357	32191	33783	32561	32880	
1077	0	32380	32189	31589	32751	33005	
1078	0	30904	32000	28641	32873	32793	
1079	0	29408	31919	28167	32829	32839	
1080	0	28810	32071	30087	32929	32887	
1081	0	29272	32223	29618	32820	32805	
1082	0	31213	32871	24897	32816	33007	
1083	0	34296	32784	29395	32729	32787	
1084	0	36994	32923	35314	32834	32867	
1085	0	38368	32947	40352	32764	32801	
1086	0	38033	32879	43839	32815	32936	
1087	0	36020	32812	41472	32850	32899	
1088	0	33234	32602	39461	32730	32683	
1089	0	30901	32728	39119	32775	32965	
1090	0	30209	32567	35713	32661	32737	
1091	0	30490	32573	29024	32856	32837	
1092	0	31431	32564	25321	32768	32743	
1093	0	32875	32607	28658	32717	32861	
1094	0	33584	32461	27511	32659	32669	
1095	0	32880	32509	23511	32825	32966	
1096	0	31767	32532	16744	32744	32816	
1097	0	31497	32549	21990	32642	32871	
1098	0	32231	32500	29210	32665	32938	
1099	0	33884	32788	34464	32824	33097	
1100	0	35385	32711	38291	32697	32844	
1101	0	35512	32927	39943	32755	33055	
1102	0	35163	33049	40628	32801	32883	
1103	0	34145	33349	41325	32847	33006	
1104	0	32902	33343	38087	32864	32711	
1105	0	31928	33072	32320	32935	32963	
1106	0	31611	32799	28378	32740	32796	
1107	0	31067	32477	30407	32921	32751	
1108	0	29901	32519	34427	32824	32700	
1109	0	29640	32306	37949	32758	32940	
1110	0	30316	32235	35649	32819	32815	
1111	0	32186	32289	34247	32895	32775	
1112	0	34196	32293	33037	32825	32980	
1113	0	36178	32263	29412	32719	32859	
1114	0	36658	32278	30084	32583	32795	
1115	0	35955	32190	32249	32833	33023	
1116	0	35048	32374	37369	32832	32902	
1117	0	33490	32545	37357	32773	32801	
1118	0	32312	32611	35183	32823	32953	
1119	0	31449	32493	34359	33210	32857	
1120	0	31789	32619	30757	33058	32691	
1121	0	32914	32903	27971	32677	32884	
1122	0	34073	33136	28775	32760	32635	
1123	0	33765	33108	33927	32613	32820	
1124	0	32573	33414	34672	32655	32690	
1125	0	30658	32935	40455	32585	32833	
1126	0	29206	32806	45108	32775	32598	
1127	0	28797	32467	43335	32852	32823	
1128	0	29456	32386	27693	32870	32704	
1129	0	30772	32184	6604	32646	32980	
1130	0	32576	32509	4405	32801	32832	
1131	0	34550	32458	15879	32860	32989	
1132	0	35564	32850	28085	32805	32692	
1133	0	35203	32833	40541	32811	32861	
1134	0	34400	32675	46816	32927	32748	
1135	0	34510	32658	51136	32775	32798	
1136	0	34498	32559	50245	32679	32944	
1137	0	34478	32731	45033	32839	32724	
1138	0	34464	32647	35369	32775	32987	
1139	0	33314	32775	23015	32828	32997	
1140	0	32244	32589	23529	32862	32775	
1141	0	31380	32863	20818	32755	32691	
1142	0	30103	32723	21728	32985	32899	
1143	0	29169	32647	24227	32824	32749	
1144	0	29016	32487	28088	32711	32863	
1145	0	29627	32165	35158	32744	32813	
1146	0	30986	32263	41821	32723	32656	
1147	0	32090	32287	42023	32711	32875	
1148	0	32595	32415	39419	32673	32637	
1149	0	32644	32606	31866	32692	32872	
1150	0	33161	32764	28982	32685	32918	
1151	0	35668	33130	32066	32595	32690	
1152	0	37544	33206	37995	32609	32922	
1153	0	37673	33069	41629	32544	32865	
1154	0	36592	32765	43431	32875	32933	
1155	0	34842	32414	44112	33098	32754	
1156	0	32524	32357	39479	32902	33007	
1157	0	30284	32358	29059	32907	32941	
1158	0	29122	32719	20342	32839	32753	
1159	0	28986	32614	19109	33017	32993	
1160	0	30054	32750	25778	32812	32728	
1161	0	31645	32704	27375	32662	32898	
1162	0	32992	32619	31264	32742	32894	
1163	0	34121	32575	35651	32736	33021	
1164	0	33751	32715	36407	32735	32979	
1165	0	33287	32437	33074	32755	32817	
1166	0	33347	32280	27509	32992	33088	
1167	0	33380	32043	26503	33004	32905	
1168	0	34136	31911	29698	32955	32808	
1169	0	35335	32343	28835	32775	32835	
1170	0	35280	32571	32445	32707	33058	
1171	0	34311	32975	35283	32602	32856	
1172	0	32529	32987	35414	32716	32787	
1173	0	29719	33311	35381	32749	33039	
1174	0	28160	33283	34307	32882	32793	
1175	0	28659	33239	30527	32751	32916	
1176	0	31142	32722	33130	32770	32896	
1177	0	34092	32885	38048	32773	32715	
1178	0	36696	32639	40128	32681	32816	
1179	0	38056	32640	44103	32548	32700	
1180	0	37628	32541	48895	32925	32731	
1181	0	35616	32594	44771	33152	32809	
1182	0	32818	32668	35601	32861	32754	
1183	0	30368	32635	22001	32650	32740	
1184	0	28431	33075	17863	32745	32899	
1185	0	27349	33159	22199	32873	32799	
1186	0	27260	33105	24811	32691	32688	
1187	0	28550	33346	25275	32683	32916	
1188	0	30367	33190	28775	32729	32758	
1189	0	32600	33027	31341	32677	32973	
1190	0	33721	32717	30739	32915	32951	
1191	0	33181	32499	32613	32887	32805	
1192	0	33033	32406	37431	32824	32987	
1193	0	33693	32361	37503	32775	32687	
1194	0	34985	32199	36631	32589	32802	
1195	0	37020	32002	36290	32650	32833	
1196	0	38592	31992	36359	32792	32848	
1197	0	39268	32171	36695	32799	32775	
1198	0	37768	32096	32898	32761	32769	
1199	0	34922	32084	33386	32825	33003	
1200	0	32749	31967	34327	32834	32763	
1201	0	31411	32139	35965	32752	32757	
1202	0	31340	32421	32290	32849	33007	
1203	0	32002	32519	32053	32839	32690	
1204	0	32470	32838	27911	32801	32879	
1205	0	32730	32961	24931	32813	32893	
1206	0	32011	33413	23688	32735	32639	
1207	0	30674	33616	23059	32789	32967	
1208	0	29713	34240	26049	32967	32764	
1209	0	29618	34191	28884	32850	32990	
1210	0	29834	33621	32715	32813	32770	
1211	0	30784	33007	37138	32747	32972	
1212	0	32085	32031	39678	32869	32789	
1213	0	33257	31312	37787	32869	32962	
1214	0	33526	30917	36927	32825	32740	
1215	0	33646	30898	37505	32807	32923	
1216	0	34055	31239	37327	32839	32903	
1217	0	34468	31971	35673	32835	32704	
1218	0	34158	32573	38919	32813	33053	
1219	0	33287	32745	40827	32839	32775	
1220	0	31960	32981	37357	32729	32963	
1221	0	31079	33208	33047	32710	32699	
1222	0	30614	33031	32897	32579	32991	
1223	0	30057	33287	33451	32603	32731	
1224	0	30051	33242	26274	32770	32766	
1225	0	31318	33383	22832	32770	32988	
1226	0	32801	33453	22722	33090	32696	
1227	0	33698	33543	26282	33011	32821	
1228	0	33741	33334	31492	33039	32918	
1229	0	33797	33088	37987	32977	32660	
1230	0	33678	33133	40933	32939	32926	
1231	0	32555	32775	40163	32749	32703	
1232	0	30732	32182	28912	32752	32875	
1233	0	29673	31672	26097	32751	32984	
1234	0	30516	31323	35472	32759	32846	
1235	0	32059	31147	42802	32658	32841	
1236	0	34546	31482	43399	32695	32658	
1237	0	36359	31793	39164	32677	32920	
1238	0	36218	32324	31154	32690	32611	
1239	0	34823	32713	28361	32870	32913	
1240	0	33872	32680	24416	32922	32967	
1241	0	33216	32918	15904	32707	32954	
1242	0	33073	33274	19743	32601	32787	
1243	0	32812	33500	34620	32556	32971	
1244	0	32120	33846	42535	33014	32797	
1245	0	32276	33794	43783	32917	33003	
1246	0	32685	33356	43207	32875	32879	
1247	0	33148	33055	37269	32716	32713	
1248	0	33860	32640	27552	32651	32889	
1249	0	33051	32254	19918	32973	32920	
1250	0	31157	32032	23293	32854	32654	
1251	0	28937	32127	26533	32774	32839	
1252	0	28779	32301	27929	32703	32805	
1253	0	30461	32047	20147	32918	32933	
1254	0	33380	32511	18694	32958	32665	
1255	0	35664	32565	24736	32895	32963	
1256	0	37206	32956	32735	32888	32768	
1257	0	37717	33116	38407	32746	32939	
1258	0	37416	32745	40721	32833	32854	
1259	0	37626	32763	41511	32721	32729	
1260	0	37626	32773	42112	32711	32755	
1261	0	36824	32763	44024	32622	32880	
1262	0	34844	32697	43734	32877	32902	
1263	0	31980	32971	41031	32836	32893	
1264	0	29796	32865	33156	32766	32837	
1265	0	29053	32747	31709	32661	32877	
1266	0	30060	32833	37503	32564	32884	
1267	0	30753	32608	42670	32661	32939	
1268	0	31576	32475	46509	32708	32964	
1269	0	32882	32193	43741	32774	32995	
1270	0	33620	32035	35189	32792	33076	
1271	0	33896	31832	25823	32836	32740	
1272	0	32528	32293	19920	32767	32960	
1273	0	30045	32408	18205	32860	32750	
1274	0	28410	33080	15615	32701	32984	
1275	0	27904	33915	13999	32734	32757	
1276	0	28058	33940	23840	32532	32914	
1277	0	28292	34060	33605	32727	32868	
1278	0	29180	33561	39819	32662	32865	
1279	0	30984	32927	42993	32696	33035	
1280	0	32384	32067	38919	32785	32792	
1281	0	33252	31094	32651	32839	32978	
1282	0	34704	31238	28958	32863	32731	
1283	0	35904	31303	29490	32996	32930	
1284	0	37352	31789	31683	32879	32708	
1285	0	37503	32071	32907	32803	32894	
1286	0	37301	32500	31861	32614	32903	
1287	0	36632	32944	33101	32687	32696	
1288	0	35288	33008	33773	32762	32933	
1289	0	33117	33345	32742	32673	32883	
1290	0	30673	33674	34219	32733	32775	
1291	0	29068	34119	37255	32767	32896	
1292	0	28498	33887	37591	32695	32855	
1293	0	28774	34125	36187	32809	32687	
1294	0	30009	33639	35429	32825	32944	
1295	0	31751	32607	32853	32884	32791	
1296	0	32775	32191	31737	33030	32884	
1297	0	33593	31586	36369	32987	32939	
1298	0	34611	31303	41277	32883	32729	
1299	0	35572	31181	42675	32751	32943	
1300	0	36018	31535	37055	32710	32694	
1301	0	36292	32051	34934	32633	33003	
1302	0	35450	32205	30148	32813	32792	
1303	0	33944	32421	15821	32829	32890	
1304	0	33010	32599	12285	32983	32755	
1305	0	32297	32821	24733	32932	32908	
1306	0	31736	32801	40430	32760	32596	
1307	0	30732	33074	49228	32774	32767	
1308	0	29358	33123	46321	32720	32615	
1309	0	28763	32761	37429	32630	32900	
1310	0	28523	32891	29988	32747	32632	
1311	0	28807	32754	25539	32866	32848	
1312	0	29498	32420	17768	32825	32792	
1313	0	31106	32692	19392	32664	32716	
1314	0	33704	32807	31480	32691	32824	
1315	0	35770	33052	39511	32789	32885	
1316	0	36511	33147	38243	32801	32921	
1317	0	37038	33149	34087	32757	33083	
1318	0	37797	32869	36943	32639	32758	
1319	0	38075	32701	33367	32557	33007	
1320	0	36608	32390	24376	32710	32720	
1321	0	35130	32168	16360	32744	32836	
1322	0	33575	32125	14908	32832	32739	
1323	0	31672	32384	30322	32792	32710	
1324	0	30245	32794	42394	32973	32978	
1325	0	29400	33256	45729	32877	32764	
1326	0	29144	33497	43394	32937	32934	
1327	0	29904	33125	36114	33287	32753	
1328	0	30727	33005	28450	33053	33027	
1329	0	31864	32693	29586	32966	32742	
1330	0	33746	32493	37331	32626	32886	
1331	0	34358	32111	41429	32578	32753	
1332	0	33630	32399	40429	32699	32909	
1333	0	32681	32203	36541	32775	32711	
1334	0	31972	32370	31008	32839	32910	
1335	0	31604	32516	22553	32774	32914	
1336	0	31840	33030	20646	32637	32959	
1337	0	32100	33161	28926	32521	32877	
1338	0	32312	33455	34543	32577	32805	
1339	0	31818	33193	36277	32535	32930	
1340	0	31133	33140	37255	32763	32699	
1341	0	31456	32514	32751	33222	32929	
1342	0	32327	32164	28612	33042	32722	
1343	0	34574	31675	24645	32967	32935	
1344	0	36246	31669	28167	32890	32802	
1345	0	37336	31821	35206	32691	32733	
1346	0	37708	32195	39403	32610	32849	
1347	0	37465	32455	40223	32735	32775	
1348	0	36588	32571	37242	32721	32775	
1349	0	35354	32807	34271	32751	32931	
1350	0	33660	32759	32101	32743	32751	
1351	0	32248	32704	36107	32722	32887	
1352	0	31657	33095	45476	32662	33077	
1353	0	30501	33046	51666	32673	32775	
1354	0	29115	33223	47227	32733	33039	
1355	0	28564	32849	39040	32775	32846	
1356	0	28340	33061	30826	32819	32902	
1357	0	28163	32896	21215	32775	32965	
1358	0	28308	33244	12456	32820	32746	
1359	0	29040	33219	11148	32773	32629	
1360	0	30796	33232	23849	32888	32723	
1361	0	33612	33124	32040	32909	32871	
1362	0	35880	32761	31197	32868	32617	
1363	0	36184	32710	22765	32986	32891	
1364	0	35872	32361	24407	32860	32835	
1365	0	35117	32247	28693	32859	32720	
1366	0	33948	32249	30463	32952	33008	
1367	0	33203	32230	32291	32907	32859	
1368	0	32666	31853	37213	32816	32758	
1369	0	32868	31925	41065	32876	32951	
1370	0	33170	32048	41147	32912	32741	
1371	0	33412	32343	42240	32895	32922	
1372	0	34498	32648	43303	32733	33047	
1373	0	35597	32813	40620	32732	32788	
1374	0	35808	32861	31175	32855	32772	
1375	0	34895	33111	27727	32690	32957	
1376	0	33669	32871	30407	32624	33005	
1377	0	31788	32699	35003	32661	32877	
1378	0	29348	32293	37106	32572	32855	
1379	0	27187	32235	36699	32509	32859	
1380	0	26530	32443	39909	32524	32690	
1381	0	27193	32519	39431	32491	32882	
1382	0	30013	32849	30060	32613	32608	
1383	0	33604	33336	28071	32773	32834	
1384	0	36752	33645	29803	32967	32775	
1385	0	37568	33260	20600	32940	32813	
1386	0	35973	32687	14355	32965	32978	
1387	0	33752	31633	18521	32700	32850	
1388	0	31332	31736	29227	32886	32654	
1389	0	29134	31879	33781	32864	32862	
1390	0	27764	31922	36322	32805	32775	
1391	0	26780	32293	36064	32759	32941	
1392	0	27380	32594	33466	32731	32983	
1393	0	29653	32987	36743	32623	32866	
1394	0	32277	33660	43864	32696	32832	
1395	0	34853	33849	46016	32720	32963	
1396	0	37277	33599	44303	32789	33107	
1397	0	39331	33129	42738	32827	32921	
1398	0	39904	32576	40103	32855	32839	
1399	0	37468	32528	30344	32892	33040	
1400	0	33607	32625	16915	32876	32952	
1401	0	31084	32816	7498	32760	32972	
1402	0	30771	32509	13134	32764	33087	
1403	0	31591	31936	22962	32903	32775	
1404	0	34343	31762	28932	32775	32892	
1405	0	36976	31631	35880	32824	32839	
1406	0	38336	31675	41351	32946	32603	
1407	0	38360	32158	45204	32967	32711	
1408	0	37003	32479	44871	32929	32786	
1409	0	34912	32624	42227	32623	32824	
1410	0	32665	32829	39575	32677	32661	
1411	0	30872	33041	34113	32651	32882	
1412	0	29516	33007	26454	32787	32801	
1413	0	29445	33223	26800	32693	32669	
1414	0	29110	33466	30439	32681	32897	
1415	0	29353	33211	36763	32647	32662	
1416	0	29601	33475	36598	32693	32733	
1417	0	29619	33360	30804	32763	32920	
1418	0	29913	32936	27519	32766	33015	
1419	0	30417	32574	27108	33011	33005	
1420	0	30578	32198	29890	32895	32857	
1421	0	30501	32393	33313	32775	32851	
1422	0	30532	32601	35079	32863	32853	
1423	0	31228	32687	34747	32848	32889	
1424	0	32629	32695	35731	32849	33095	
1425	0	34776	32440	37447	32815	32711	
1426	0	36866	32257	38011	32679	32735	
1427	0	37798	32135	35863	32709	32871	
1428	0	37707	32231	31627	32653	32623	
1429	0	36596	32144	31465	32626	32855	
1430	0	34940	32287	31842	32819	32642	
1431	0	33379	32356	37142	32891	32775	
1432	0	32060	32324	39647	32835	32677	
1433	0	31227	32137	36253	32839	32914	
1434	0	30823	32677	38071	32907	32933	
1435	0	31056	32667	34439	32913	32771	
1436	0	31921	32916	25100	32923	32981	
1437	0	32989	32786	19792	32907	32939	
1438	0	32622	33251	23029	32974	32598	
1439	0	32000	33280	33975	32809	32812	
1440	0	30809	33197	38177	32769	32867	
1441	0	30166	32861	31623	32647	32774	
1442	0	31098	32967	29225	32630	33187	
1443	0	31801	32929	24192	32734	33394	
1444	0	32180	32786	26631	32637	33499	
1445	0	32168	32914	34311	32681	33032	
1446	0	31762	32994	38700	32690	33036	
1447	0	31570	32639	36231	32793	32583	
1448	0	32608	32756	27184	32753	32148	
1449	0	33552	32552	19209	32568	32137	
1450	0	34339	32412	21016	32825	32377	
1451	0	35638	32534	35737	32653	32528	
1452	0	36502	32439	44180	32813	33553	
1453	0	36529	32297	41927	32678	33953	
1454	0	36178	32231	35328	32653	33588	
1455	0	35432	32530	29719	32930	33253	
1456	0	34057	32679	26891	33023	33434	
1457	0	32925	32998	30992	32992	33059	
1458	0	32652	32869	39791	32868	31721	
1459	0	33042	32671	44333	32825	30818	
1460	0	32986	32143	43065	32711	32059	
1461	0	32362	32117	39001	32740	33531	
1462	0	31043	32007	35923	32741	33387	
1463	0	30012	32549	29689	32922	33157	
1464	0	28891	33037	24207	32839	32877	
1465	0	27876	33415	27520	32912	32189	
1466	0	27097	33705	33472	32795	31231	
1467	0	26938	33279	32517	32755	32681	
1468	0	28018	33394	27263	32617	32184	
1469	0	31194	32827	25372	32698	32289	
1470	0	35401	32220	30996	32948	32281	
1471	0	39109	31871	35595	33007	32879	
1472	0	40515	31764	33147	32751	32910	
1473	0	39337	31799	30755	32667	33579	
1474	0	36758	32311	30575	32726	34136	
1475	0	34744	32829	31509	32855	35015	
1476	0	33748	33090	33306	32770	34082	
1477	0	32664	33059	37447	32741	33970	
1478	0	31239	33362	40175	32743	34055	
1479	0	29362	33015	36796	32792	34251	
1480	0	27433	33129	33871	32859	33872	
1481	0	26493	32409	31500	32724	31353	
1482	0	27219	32503	31591	32701	28592	
1483	0	30402	32414	28771	32635	27930	
1484	0	36005	32449	27263	32821	31432	
1485	0	41094	32630	28251	32767	33769	
1486	0	42567	32742	30587	32830	33823	
1487	0	40230	32727	34651	32827	33900	
1488	0	35843	32497	35991	32845	33366	
1489	0	32589	32007	35959	32865	33351	
1490	0	30900	31568	34496	32808	31707	
1491	0	30339	31591	34117	32797	32079	
1492	0	29256	31632	36611	32592	33055	
1493	0	28412	31986	40358	32576	33622	
1494	0	28577	32519	41965	32997	33586	
1495	0	29962	32670	41991	32963	32797	
1496	0	31548	33184	36482	32896	33270	
1497	0	33328	33155	26471	32992	32781	
1498	0	34584	33248	18341	33078	33529	
1499	0	35203	33543	13309	33110	34213	
1500	0	34876	33544	23612	32908	34426	
1501	0	34144	33671	34211	32655	34503	
1502	0	32993	33580	38149	32651	32909	
1503	0	32080	33125	40811	32569	30918	
1504	0	32025	32895	40692	32601	31642	
1505	0	32715	32263	40423	32681	32583	
1506	0	32675	32478	40370	32681	32986	
1507	0	32617	32355	39039	32677	32443	
1508	0	32059	32333	40038	32683	31175	
1509	0	31297	32178	33424	32787	32917	
1510	0	30848	32243	26398	32737	34906	
1511	0	31020	32541	21299	32775	35192	
1512	0	31364	32643	26391	32898	34489	
1513	0	32902	32608	29408	32674	33387	
1514	0	34836	32349	28748	32699	31141	
1515	0	35438	32334	21094	32600	31030	
1516	0	34505	32551	25368	32867	30676	
1517	0	33105	32667	31117	32666	30433	
1518	0	31828	32929	36326	32646	31489	
1519	0	31300	33004	36299	32763	33142	
1520	0	30932	33557	33382	32871	33897	
1521	0	31431	33351	33011	32813	33709	
1522	0	32014	33135	33615	32902	33734	
1523	0	33317	32682	33983	32883	34493	
1524	0	34069	32502	38042	32934	36622	
1525	0	33933	32312	40291	32873	37223	
1526	0	33744	32327	33772	32855	35064	
1527	0	32719	32151	28703	32857	28370	
1528	0	31232	32037	27291	33030	26845	
1529	0	30367	31947	26464	32903	28971	
1530	0	30861	31927	25405	32749	28137	
1531	0	32386	32150	30621	32908	30975	
1532	0	33746	32263	37565	32853	33787	
1533	0	33380	33148	40620	32817	33573	
1534	0	32356	33530	36320	32795	33035	
1535	0	31395	33565	31197	32743	33896	
1536	0	31742	33287	34763	32619	34166	
1537	0	33172	33082	37569	32647	34435	
1538	0	34382	33109	38227	32648	34533	
1539	0	34116	32632	30761	32643	34372	
1540	0	32949	32273	22260	32687	34352	
1541	0	32334	32093	18503	32688	33191	
1542	0	32148	32263	25523	32837	33026	
1543	0	33746	32397	31908	32835	32263	
1544	0	35312	32583	33743	32879	32349	
1545	0	37074	32832	33730	32775	32413	
1546	0	37842	33037	38011	32753	32902	
1547	0	36619	33382	39586	32734	33407	
1548	0	34034	33563	39807	32877	33272	
1549	0	31922	33799	37998	32935	33435	
1550	0	30928	33312	34525	32935	32003	
1551	0	30905	32370	36639	32922	31935	
1552	0	31648	31546	39410	32744	32751	
1553	0	32730	31265	35736	32626	33114	
1554	0	33268	31413	30632	32886	33089	
1555	0	33282	31623	25818	32839	32930	
1556	0	33385	31931	26426	32647	33580	
1557	0	32720	32263	30241	32879	33385	
1558	0	31410	32339	33523	32809	33510	
1559	0	30749	32491	35439	32716	33305	
1560	0	31031	32831	35570	32802	33463	
1561	0	31360	33025	34821	32839	32839	
1562	0	31832	33338	37177	32837	30281	
1563	0	32701	33551	40167	32927	30300	
1564	0	32815	33391	41479	32758	32219	
1565	0	31751	33251	38813	32632	33111	
1566	0	30342	33057	32186	32775	33061	
1567	0	28986	32621	28175	32821	33115	
1568	0	28781	32528	22188	32708	33119	
1569	0	30119	32079	20791	32973	32871	
1570	0	31648	31877	26378	32775	33101	
1571	0	33540	32048	29156	32775	32905	
1572	0	35296	32199	32592	32592	33004	
1573	0	35946	32514	37143	32639	33147	
1574	0	36720	33133	39367	32637	32996	
1575	0	37584	33394	37273	32590	33079	
1576	0	37467	33317	30091	32632	32899	
1577	0	36396	33235	25687	32627	33120	
1578	0	35144	32718	31435	32613	32801	
1579	0	33871	32505	40070	32917	33109	
1580	0	33292	32434	44294	33450	33242	
1581	0	32072	32293	43705	33443	33236	
1582	0	30693	31906	28340	33050	33074	
1583	0	28624	31852	15907	32596	32850	
1584	0	27304	31943	17856	32770	32375	
1585	0	26592	32109	27234	32717	32135	
1586	0	26430	32138	33187	32654	32101	
1587	0	27529	32845	32663	32733	32675	
1588	0	30158	33085	29135	32747	32759	
1589	0	32939	33758	33621	32693	32977	
1590	0	36330	33519	35258	32555	32836	
1591	0	38919	33125	33303	32599	33025	
1592	0	39549	32865	28134	32535	32914	
1593	0	38670	32693	26162	32823	33030	
1594	0	36012	32661	29239	32812	33024	
1595	0	33432	32863	35939	32649	32884	
1596	0	31124	32941	42114	32666	32989	
1597	0	29703	33063	42765	32621	32711	
1598	0	28640	33257	39135	32639	32711	
1599	0	28248	33121	40855	32672	32992	
1600	0	28668	33285	45063	32672	32813	
1601	0	30818	32775	41973	32800	33046	
1602	0	33032	32565	34244	32902	32621	
1603	0	35507	32337	26743	33019	32676	
1604	0	36824	32323	16115	32864	32866	
1605	0	36907	32410	5374	32678	32812	
1606	0	35212	32306	9947	32861	33003	
1607	0	33932	32072	28608	32674	32789	
1608	0	34000	32394	44732	32801	32991	
1609	0	35026	32450	49127	32980	32647	
1610	0	37056	32391	39111	32992	32804	
1611	0	37504	32583	31085	32971	32691	
1612	0	36695	32761	30538	32861	32993	
1613	0	34887	32967	30699	32962	32962	
1614	0	32462	33287	32283	32859	32755	
1615	0	30378	33431	35205	32738	32967	
1616	0	29369	32837	36059	32743	32775	
1617	0	29661	32374	35011	32745	32875	
1618	0	30144	31431	34864	32725	32685	
1619	0	30494	30626	36015	32842	32692	
1620	0	31234	30695	38459	32795	32886	
1621	0	32345	31273	38959	32757	33014	
1622	0	33165	31845	39503	32671	32694	
1623	0	33638	32647	40528	32731	32807	
1624	0	33164	33049	32600	32722	32673	
1625	0	32178	33369	27828	32701	32579	
1626	0	30645	33287	29568	32818	32967	
1627	0	29224	33455	34311	32679	32941	
1628	0	28888	33863	33893	32653	32941	
1629	0	29662	33599	32418	32722	32833	
1630	0	29844	33495	32801	32759	32743	
1631	0	29576	33091	31777	32948	32743	
1632	0	29078	33223	31268	32687	33059	
1633	0	28689	33061	28192	32843	32889	
1634	0	28248	32839	25248	32895	32823	
1635	0	28209	32801	26491	32959	33158	
1636	0	30130	32927	29517	32863	33273	
1637	0	33918	32557	32229	32907	32937	
1638	0	38052	32432	40952	32851	32683	
1639	0	42196	32452	45723	32812	31877	
1640	0	45226	32566	47109	32685	31858	
1641	0	44154	32517	43819	32577	32575	
1642	0	40466	32614	36854	32608	32941	
1643	0	36184	32605	25180	32681	32824	
1644	0	33071	32877	12638	32840	33180	
1645	0	31297	33508	5661	32765	33135	
1646	0	30632	33767	8667	32410	32733	
1647	0	29804	34024	21182	32888	32749	
1648	0	29226	33484	34533	33021	33104	
1649	0	29477	32173	41233	33085	32878	
1650	0	29741	30984	43711	33022	32839	
1651	0	30546	29991	43382	33083	33142	
1652	0	31238	29975	40786	32852	33130	
1653	0	31382	30535	40839	32766	32791	
1654	0	31527	32056	40699	32696	32896	
1655	0	31961	32725	40879	32551	32726	
1656	0	32390	33170	34311	32542	32875	
1657	0	33896	33287	27466	32617	32809	
1658	0	35504	33024	20224	32655	32869	
1659	0	36448	32854	18695	32537	32797	
1660	0	35871	32907	21507	32759	32839	
1661	0	34677	33328	27202	32843	32926	
1662	0	32313	33298	35847	32816	32745	
1663	0	31218	33214	41594	32835	33031	
1664	0	31449	33663	41743	32907	32795	
1665	0	31559	33698	36912	32833	32993	
1666	0	31482	33455	32657	32839	32906	
1667	0	32474	32518	35753	32859	33003	
1668	0	34050	32160	46387	32956	32751	
1669	0	34282	31674	49075	32985	33003	
1670	0	33315	31365	39727	32760	32755	
1671	0	31726	31648	27360	32797	32963	
1672	0	30784	32468	29473	32761	32742	
1673	0	30853	32895	31255	32636	32969	
1674	0	32532	32733	22455	32946	32737	
1675	0	34232	33095	16086	32910	32930	
1676	0	34541	32963	19249	32519	32655	
1677	0	34665	32775	21735	32820	32898	
1678	0	34728	32719	24308	32921	33013	
1679	0	34280	32595	31034	32762	32898	
1680	0	34452	32839	38232	32693	32775	
1681	0	34113	32857	42074	32795	32967	
1682	0	32744	32819	40989	32743	32775	
1683	0	30611	33106	41001	32837	32959	
1684	0	28237	32795	37469	32839	32727	
1685	0	26669	32998	34355	32741	32843	
1686	0	26288	33114	33891	32762	32927	
1687	0	26554	32890	37073	32711	32704	
1688	0	28344	33170	41595	32817	32897	
1689	0	30976	32919	40051	32753	32883	
1690	0	34864	32966	35880	32691	32741	
1691	0	37820	32586	31128	32745	32943	
1692	0	39004	32455	27601	32893	32930	
1693	0	37383	32374	23111	32721	32658	
1694	0	35046	32194	26293	32590	32896	
1695	0	33645	32295	35375	32755	32870	
1696	0	34516	32805	38075	32744	32789	
1697	0	34439	32977	37283	32663	32946	
1698	0	34112	32873	30517	32873	32939	
1699	0	32969	32583	25482	32877	32797	
1700	0	30173	32517	29719	32763	32730	
1701	0	30005	32896	37691	32759	32952	
1702	0	30685	32681	40903	32765	32839	
1703	0	30760	32602	31025	32741	32812	
1704	0	30146	32019	21769	33048	32792	
1705	0	30346	31919	24005	32875	33009	
1706	0	30070	31570	26271	32879	33129	
1707	0	29724	32031	28957	32753	32915	
1708	0	29639	32404	31613	32785	32847	
1709	0	30336	33089	33563	32867	32860	
1710	0	32370	33152	37826	32825	32637	
1711	0	34405	33008	36121	32824	32948	
1712	0	37626	32797	27977	32804	32808	
1713	0	41722	32605	25808	32872	32682	
1714	0	43846	32127	29330	32939	33033	
1715	0	43220	32084	33917	33012	32775	
1716	0	42472	32082	38784	32993	32983	
1717	0	40000	32455	44669	32902	32790	
1718	0	36818	32927	48707	32765	32852	
1719	0	34284	33145	45657	32669	32982	
1720	0	31771	33543	42170	32697	32957	
1721	0	29221	33506	34974	32655	32793	
1722	0	27829	32991	28421	32633	32799	
1723	0	27521	32758	28931	32911	33001	
1724	0	27608	32199	29088	32944	33090	
1725	0	28276	31362	22752	32987	33251	
1726	0	28224	31102	19405	32962	32957	
1727	0	27900	31481	15446	32849	32811	
1728	0	29191	32382	22377	32809	32483	
1729	0	30936	33725	30148	32647	32015	
1730	0	33625	33836	38200	32640	32114	
1731	0	35048	33687	46426	32715	32368	
1732	0	35458	33138	46567	32711	32960	
1733	0	33874	32787	45785	32624	32897	
1734	0	31407	32731	40761	32665	32803	
1735	0	28866	32649	28028	32576	32941	
1736	0	26482	32880	17690	32718	32769	
1737	0	24386	32690	11898	32769	32899	
1738	0	23978	33014	19296	32914	32987	
1739	0	25904	32850	30455	32794	32813	
1740	0	30258	32229	35473	32770	33040	
1741	0	36516	32317	38193	32812	32859	
1742	0	42211	32562	40296	32749	33070	
1743	0	43471	32621	39609	32703	32825	
1744	0	41816	32762	37611	32635	32992	
1745	0	39768	33025	37607	32683	32863	
1746	0	38023	33299	37226	32759	32839	
1747	0	36520	33071	37015	32851	32940	
1748	0	34335	32933	38553	32839	32727	
1749	0	32240	32928	38031	32737	33003	
1750	0	29800	32659	34915	32761	33018	
1751	0	27890	32417	31103	32741	32711	
1752	0	26145	32183	31718	32857	32947	
1753	0	25765	31744	36247	32832	32725	
1754	0	25890	31698	37078	32775	33060	
1755	0	26564	31917	32225	32696	32711	
1756	0	28708	32678	24787	32983	32963	
1757	0	30648	32920	24347	32869	32700	
1758	0	32789	32970	31019	32702	32825	
1759	0	34548	32639	34948	32603	32727	
1760	0	35856	32455	35103	32827	32623	
1761	0	37643	32563	34117	32820	32829	
1762	0	40292	32728	35859	32726	32850	
1763	0	41882	33032	41666	32710	32757	
1764	0	40144	33198	39619	32677	32869	
1765	0	38026	33351	30578	32922	32637	
1766	0	35818	33287	20628	32896	32912	
1767	0	34413	32847	16391	32805	32731	
1768	0	33200	32762	22333	33003	33069	
1769	0	31202	32284	26051	32903	32857	
1770	0	27655	32381	24211	32749	32809	
1771	0	24082	32591	22744	32892	33001	
1772	0	23044	33384	26797	32749	32893	
1773	0	24666	33186	33544	32690	32839	
1774	0	27784	33254	40271	32740	32967	
1775	0	30773	32770	43424	32682	32685	
1776	0	33738	32763	42618	32741	32923	
1777	0	35386	32763	38435	32793	32699	
1778	0	35698	33028	31032	32756	32967	
1779	0	35696	33058	29517	32688	32967	
1780	0	36208	33508	36127	32534	32825	
1781	0	35962	33570	40346	32589	32961	
1782	0	36616	33895	39866	32708	32899	
1783	0	38655	33727	37819	32815	32772	
1784	0	40814	33149	35975	32921	33023	
1785	0	40773	32446	33185	32869	32881	
1786	0	38854	31634	31010	32733	32699	
1787	0	36508	30806	26434	33001	32870	
1788	0	34268	29934	32109	33005	32850	
1789	0	32097	29458	36987	33117	32685	
1790	0	29175	29186	33676	33121	32917	
1791	0	27387	29653	22513	33095	32704	
1792	0	26301	30952	17372	33040	32958	
1793	0	26810	31799	21343	32890	32947	
1794	0	27910	32327	28257	32731	32809	
1795	0	29951	33024	34305	32473	32909	
1796	0	31480	33460	41478	32526	32985	
1797	0	31784	34263	44375	32471	32725	
1798	0	32422	34179	43177	32440	32937	
1799	0	32899	34437	40407	32557	32835	
1800	0	32304	34823	35625	32649	32697	
1801	0	30990	35271	31154	32916	32995	
1802	0	29208	35974	32940	32669	32810	
1803	0	27800	35600	34878	32632	33023	
1804	0	28306	34779	30674	32816	32812	
1805	0	29319	32481	24071	33338	32952	
1806	0	29797	30614	22208	33422	32739	
1807	0	30301	29028	27366	33093	32925	
1808	0	31061	28734	36550	32932	32733	
1809	0	31564	29590	43122	32801	32925	
1810	0	32898	31268	46377	32723	32773	
1811	0	35664	32363	39792	32736	32972	
1812	0	39040	32773	28882	32756	32743	
1813	0	41025	32843	21458	32759	32880	
1814	0	40516	32891	21504	32619	32709	
1815	0	38881	32731	28289	32813	33046	
1816	0	37062	32757	34818	32762	32803	
1817	0	36079	33183	39787	32798	32928	
1818	0	35712	33187	38510	32730	32792	
1819	0	35893	33168	30693	32736	32972	
1820	0	35018	33254	31227	32633	32749	
1821	0	34038	33655	37804	32647	32978	
1822	0	32472	33889	41243	32751	32903	
1823	0	30670	33579	42608	32630	32784	
1824	0	28630	33884	42858	32573	33017	
1825	0	27467	33479	41949	32607	32826	
1826	0	27356	33168	36320	32688	32656	
1827	0	27368	33176	18430	32896	32616	
1828	0	27525	32877	10325	32821	32759	
1829	0	27181	32507	14208	32775	32589	
1830	0	26845	31813	18811	32804	32915	
1831	0	26994	31463	20523	32893	32677	
1832	0	28848	31431	25339	32889	32945	
1833	0	31536	32053	31727	32775	32807	
1834	0	33887	32544	35922	32963	32896	
1835	0	36888	32902	43684	33056	32944	
1836	0	39396	33129	48935	33219	32804	
1837	0	40578	33159	43630	33283	32723	
1838	0	40240	33019	40943	33184	32933	
1839	0	38268	33055	39716	32743	32859	
1840	0	35590	32861	31870	32620	32708	
1841	0	33216	33053	20552	32576	32974	
1842	0	32152	33051	14457	32659	32719	
1843	0	33956	33106	21541	32386	32992	
1844	0	36617	32991	33732	32612	32813	
1845	0	38428	33021	42192	32629	32896	
1846	0	37686	33063	42291	32673	32930	
1847	0	35640	33055	40615	32499	32772	
1848	0	33296	33046	37459	32691	32956	
1849	0	31797	32547	33317	32645	32698	
1850	0	30138	32312	29426	32903	32863	
1851	0	29004	32101	29840	32946	32927	
1852	0	28204	32249	30997	32888	32718	
1853	0	26399	32229	34996	32850	32863	
1854	0	25449	32929	37030	32881	32809	
1855	0	24973	33095	36691	32868	32867	
1856	0	25124	33453	35027	32813	32839	
1857	0	27514	32813	28390	32986	32909	
1858	0	31129	32210	24038	32888	32953	
1859	0	34354	31285	28365	32848	32715	
1860	0	36246	30968	36269	32705	32937	
1861	0	36009	30791	41600	32825	32936	
1862	0	35256	31074	47202	32787	32745	
1863	0	34245	31218	46727	32898	32775	
1864	0	33949	31427	36530	32816	33024	
1865	0	33865	31787	25358	32656	32883	
1866	0	33572	32600	14369	32681	32740	
1867	0	33652	33328	7138	32541	32895	
1868	0	34040	34042	14437	32540	32886	
1869	0	34976	34930	33042	32640	32705	
1870	0	36078	35104	49385	32804	32706	
1871	0	35805	35254	48623	32687	32883	
1872	0	35674	35365	35719	32812	32940	
1873	0	35480	35094	26166	33092	32641	
1874	0	34631	33960	30432	33015	32857	
1875	0	34842	32400	40946	33249	32573	
1876	0	35500	30264	48214	33188	32787	
1877	0	33666	28823	44871	33132	32563	
1878	0	31408	28502	40253	32811	32895	
1879	0	30096	28968	31748	32504	32768	
1880	0	29676	29960	11444	32325	32760	
1881	0	29589	30876	3208	32461	33049	
1882	0	29621	32256	19186	32677	32845	
1883	0	30872	32774	43274	32421	32827	
1884	0	31542	33504	50006	32480	32999	
1885	0	31982	33861	46948	32531	32896	
1886	0	31208	34083	35619	32955	32936	
1887	0	30654	34244	25124	32773	32923	
1888	0	30939	34052	17975	32792	32744	
1889	0	30421	33547	18203	32710	32913	
1890	0	30464	33376	26392	32986	32718	
1891	0	30924	33369	33190	33170	32931	
1892	0	31906	33501	40210	33353	32760	
1893	0	34082	33928	47175	33624	32954	
1894	0	37066	33899	47789	33499	32724	
1895	0	39000	33939	44847	32938	32967	
1896	0	38248	33907	38460	32495	32695	
1897	0	36718	34176	36774	32277	32672	
1898	0	35003	33811	35810	32315	32907	
1899	0	32678	33091	36295	32598	32916	
1900	0	31261	32081	34473	32615	32993	
1901	0	30350	31122	29143	32649	32774	
1902	0	30280	30674	18153	32552	32937	
1903	0	31154	30228	13513	32600	32629	
1904	0	32515	30440	9949	32587	32713	
1905	0	32532	30832	18400	32543	32773	
1906	0	32650	31540	30111	32947	32679	
1907	0	33142	32364	40022	32813	32895	
1908	0	33399	32683	40820	32770	32661	
1909	0	33367	33159	39163	32688	32816	
1910	0	33321	33117	39203	32647	32545	
1911	0	32229	32775	31790	32732	32905	
1912	0	29898	32504	29393	32711	32738	
1913	0	28109	32784	37624	32880	33000	
1914	0	26888	32622	42291	32974	32762	
1915	0	26729	32999	36053	32967	32997	
1916	0	27243	33068	27667	32658	32821	
1917	0	29053	34111	22863	32692	33012	
1918	0	31412	34448	26532	32771	32865	
1919	0	34078	34804	35305	32710	32946	
1920	0	37994	34377	42573	32749	33009	
1921	0	41928	33407	46741	32977	32801	
1922	0	44474	32297	42601	32938	33127	
1923	0	42696	31404	31096	33001	32926	
1924	0	39721	30645	22461	33045	32981	
1925	0	36547	30768	24489	32832	32922	
1926	0	33268	31461	32065	32648	32943	
1927	0	32034	32017	36461	32663	32704	
1928	0	31894	32453	32704	32729	32932	
1929	0	30710	32242	29067	32699	32895	
1930	0	29649	32473	33738	32722	32676	
1931	0	29249	32544	42384	32735	32859	
1932	0	28812	33222	46043	32870	32647	
1933	0	29084	34005	48421	33014	32867	
1934	0	30224	34843	41228	32751	32921	
1935	0	31570	35629	29785	32653	32749	
1936	0	32098	35112	25595	32668	32755	
1937	0	32422	34066	20734	32637	33037	
1938	0	33192	32242	14373	33000	32720	
1939	0	34116	30836	8596	33016	32873	
1940	0	35148	30240	15244	32977	32775	
1941	0	35816	30272	30760	32740	32978	
1942	0	34302	30853	41111	32802	32869	
1943	0	32254	31544	43987	32757	32839	
1944	0	30984	32117	45063	32853	32935	
1945	0	30419	31616	42373	32869	32739	
1946	0	31341	31577	41746	32967	32888	
1947	0	33053	31645	41951	32868	32723	
1948	0	33900	32767	44786	32704	32924	
1949	0	33478	33757	42247	32859	32861	
1950	0	34184	34262	33472	32829	32674	
1951	0	34605	34286	32759	32698	32997	
1952	0	33097	34162	31181	32576	32791	
1953	0	30722	33610	26830	32557	32716	
1954	0	29412	32696	16538	32765	32760	
1955	0	28458	32445	12762	32955	32674	
1956	0	28112	32262	12809	32607	32720	
1957	0	28456	32574	15013	32377	32835	
1958	0	29741	33325	20079	32365	32953	
1959	0	31619	33422	24257	32559	32843	
1960	0	35259	34241	31702	32429	33008	
1961	0	39244	34168	40613	32745	33026	
1962	0	40155	33539	46702	33001	32884	
1963	0	39546	32525	50310	33047	33100	
1964	0	37148	31147	49585	33101	32815	
1965	0	32775	30619	42839	33206	33044	
1966	0	30685	30605	38183	33013	32835	
1967	0	31264	30977	39920	32835	32762	
1968	0	32251	30559	39778	32863	32895	
1969	0	32506	30595	32325	32937	32991	
1970	0	32377	30546	23997	32763	32800	
1971	0	32829	31502	25496	32983	32887	
1972	0	32865	32762	28904	32731	32812	
1973	0	31687	34387	26043	32468	32629	
1974	0	30789	35447	28237	32691	32898	
1975	0	30820	35267	31133	32653	33031	
1976	0	31613	34416	33633	32822	32775	
1977	0	31832	32571	41159	32844	32839	
1978	0	32956	31013	43562	33190	32978	
1979	0	33616	30598	44662	33210	32847	
1980	0	33292	31223	43767	32774	32879	
1981	0	32809	32303	39333	32653	32911	
1982	0	31644	33890	34080	32541	32735	
1983	0	30200	34823	27912	32404	32947	
1984	0	29060	35499	24489	32023	32979	
1985	0	28313	35347	25337	32205	32607	
1986	0	28350	34147	19711	32426	32680	
1987	0	29672	33154	16942	32730	32790	
1988	0	31477	31632	23232	32890	32972	
1989	0	33304	31099	32176	33144	32849	
1990	0	34023	30853	30151	33085	32819	
1991	0	34272	31271	26919	33051	33007	
1992	0	33938	31696	31414	33053	33080	
1993	0	34568	31968	38049	32953	33001	
1994	0	35746	32540	43817	32762	32775	
1995	0	37288	32336	47215	32923	32838	
1996	0	39074	32576	48080	33011	33056	
1997	0	39490	33082	42208	33039	32713	
1998	0	38546	33650	29240	33085	32774	
1999	0	35824	34183	21373	32750	32853	
2000	0	31906	34720	24723	32526	32800	
2001	0	28760	34383	30143	32263	32789	
2002	0	28377	34383	33133	32114	32833	
2003	0	28392	33551	33625	32313	32623	
2004	0	27911	32549	30607	32520	32945	
2005	0	27959	31220	28983	32606	33001	
2006	0	27851	30384	28521	32893	32960	
2007	0	29033	30637	31686	32921	32816	
2008	0	31112	30886	35239	33005	32912	
2009	0	34632	31267	34914	33136	32993	
2010	0	39028	32040	28524	33059	33038	
2011	0	42034	33076	28651	32803	32775	
2012	0	41315	34080	33942	32803	32994	
2013	0	39488	34911	36445	32713	32885	
2014	0	37884	34935	36261	32887	32646	
2015	0	36186	34514	31385	32903	32849	
2016	0	35228	33232	32581	32967	32655	
2017	0	34084	31147	37860	32877	32704	
2018	0	32936	29547	39431	33046	32727	
2019	0	31852	28669	35220	32922	32731	
2020	0	30497	29431	34031	32737	32826	
2021	0	29762	30302	31597	32744	32658	
2022	0	29268	31853	28532	32850	33110	
2023	0	28062	32825	28343	32687	32914	
2024	0	27010	33886	35194	32569	33061	
2025	0	27062	34388	45348	32431	32880	
2026	0	27844	35031	47540	32361	32738	
2027	0	29445	34462	41115	32500	32711	
2028	0	31409	34477	35474	32633	32671	
2029	0	32322	34188	28674	32694	32848	
2030	0	32630	34483	26247	32967	32710	
2031	0	32541	35314	32967	32985	32696	
2032	0	33837	36162	40864	32967	32906	
2033	0	34822	35812	35976	33177	32634	
2034	0	35177	34066	19546	33368	32904	
2035	0	34042	31056	7212	33273	32883	
2036	0	32476	28219	8381	33146	32648	
2037	0	31450	26664	14735	33030	32896	
2038	0	31760	26715	19217	32658	32903	
2039	0	32491	27525	23569	32417	32899	
2040	0	32805	29328	28664	32637	33114	
2041	0	32297	31939	34789	32813	33058	
2042	0	31365	33840	39559	32881	32748	
2043	0	30816	34963	43846	32893	32674	
2044	0	31469	35180	46434	32592	32851	
2045	0	33648	35661	47358	32401	32720	
2046	0	36418	35541	48210	32408	32801	
2047	0	37976	35469	48710	32386	32853	
2048	0	37234	35042	44551	32532	32709	
2049	0	35303	34147	42038	32596	32989	
2050	0	33424	33053	42125	32337	33033	
2051	0	32510	31952	38693	32539	32764	
2052	0	31768	31306	27186	32720	32978	
2053	0	30580	30842	14179	32880	33005	
2054	0	30270	31172	9681	32839	32763	
2055	0	29750	31434	20482	33021	32809	
2056	0	30098	32045	32838	33314	32955	
2057	0	32528	32511	38076	33362	32868	
2058	0	35481	32917	38232	33266	32803	
2059	0	36509	33005	38253	32775	32882	
2060	0	35891	32935	36475	32499	32787	
2061	0	34017	32505	31928	32523	32813	
2062	0	31680	32700	24552	32589	32918	
2063	0	29801	32717	21021	32702	32735	
2064	0	28400	33072	24153	32752	32795	
2065	0	28385	32937	31033	32562	33039	
2066	0	29557	33205	37071	32589	32859	
2067	0	31717	33093	37611	32523	32775	
2068	0	34274	33251	35719	32725	33041	
2069	0	36066	33343	36049	32738	32851	
2070	0	37089	33191	37798	32671	32940	
2071	0	37377	33422	37346	32850	33103	
2072	0	36912	33087	33567	32887	32884	
2073	0	34258	32603	31005	32945	33144	
2074	0	31291	32711	34079	33081	32999	
2075	0	30635	33063	34999	32870	32861	
2076	0	31013	33063	34343	32891	32741	
2077	0	32877	32454	33187	33107	32592	
2078	0	35586	32295	32571	33070	32716	
2079	0	36858	31506	35815	32914	32600	
2080	0	36331	31431	34370	33034	32870	
2081	0	34690	31165	30976	33069	32689	
2082	0	32616	30973	35680	33095	32948	
2083	0	30023	31669	41522	33031	32791	
2084	0	28195	32352	40467	32799	32735	
2085	0	27967	32372	30933	32592	32857	
2086	0	29153	32451	27643	32515	32835	
2087	0	29665	32083	27059	32480	32688	
2088	0	30158	31610	22758	32676	32679	
2089	0	30436	31610	20614	32591	32859	
2090	0	30516	32468	26102	32365	32983	
2091	0	31380	33038	35907	32472	32848	
2092	0	33339	33934	37660	32507	32785	
2093	0	35168	34823	28516	32594	32985	
2094	0	35965	35776	20050	32647	32733	
2095	0	36710	35670	26247	32885	33038	
2096	0	36064	35463	33837	33015	32832	
2097	0	33604	34331	38997	33245	32946	
2098	0	30431	33026	40806	33339	32989	
2099	0	29097	32027	36586	33577	32775	
2100	0	30376	31549	33957	33351	32743	
2101	0	33380	31437	36609	33033	32931	
2102	0	36580	31394	38727	32791	32999	
2103	0	37667	31403	42115	32429	32935	
2104	0	36455	31381	42482	32489	32699	
2105	0	33988	31275	38530	32568	32921	
2106	0	32029	30891	30834	32775	32740	
2107	0	31328	31204	22885	32487	32960	
2108	0	31113	31810	12210	32676	32746	
2109	0	31352	33008	18783	32611	32747	
2110	0	32048	33668	31788	32466	32941	
2111	0	33060	34019	41454	32594	33031	
2112	0	32804	34023	44346	32683	32853	
2113	0	31315	33229	42066	32917	32743	
2114	0	30061	32000	36923	33026	32972	
2115	0	29680	31299	26960	32996	32939	
2116	0	29428	31077	18377	32855	32786	
2117	0	30381	31409	22530	32932	32899	
2118	0	31748	32281	27799	32773	32817	
2119	0	33608	32688	33262	32696	32847	
2120	0	36334	33077	37712	32711	32604	
2121	0	37624	33399	37787	32679	32835	
2122	0	37697	33571	34973	32628	32819	
2123	0	37673	33767	33939	32734	32631	
2124	0	36902	33757	34257	32754	32967	
2125	0	35645	34066	35511	32745	32769	
2126	0	34042	34033	32593	32839	32859	
2127	0	33138	33799	29735	32735	32959	
2128	0	32688	33047	30497	32797	32722	
2129	0	30934	32594	32903	32742	32775	
2130	0	29645	31930	36493	32853	32918	
2131	0	29554	31292	38887	32664	32749	
2132	0	28907	31031	39545	32631	33007	
2133	0	29276	30725	37316	32703	32927	
2134	0	31030	30777	34587	32745	32815	
2135	0	33406	31234	32625	32697	33042	
2136	0	36270	32506	36307	32945	32880	
2137	0	37586	33873	39015	32809	32829	
2138	0	37511	35389	38315	32611	33025	
2139	0	35877	37319	36807	32711	32741	
2140	0	32931	38188	33796	32809	32952	
2141	0	31205	37039	24820	32775	32719	
2142	0	30024	34301	19747	32872	32902	
2143	0	29205	31170	20845	33243	32971	
2144	0	28576	28082	21163	33021	32817	
2145	0	28865	26276	19561	33057	32749	
2146	0	29458	26537	21350	33029	32899	
2147	0	29410	28066	26996	32995	32688	
2148	0	29067	29568	35916	32813	32464	
2149	0	29581	31285	42823	32848	32582	
2150	0	31303	32315	45670	32669	32800	
2151	0	33396	32987	43927	32571	32809	
2152	0	35181	33025	37357	32620	32668	
2153	0	36530	32903	30358	32925	32914	
2154	0	36434	33218	27957	32824	32994	
2155	0	35371	33532	28894	32559	32861	
2156	0	33900	34247	30099	32541	32773	
2157	0	32982	34765	32415	32574	32807	
2158	0	31870	34660	34367	32658	33005	
2159	0	31197	34960	38291	32775	32987	
2160	0	31488	34435	39431	32733	32972	
2161	0	32918	33775	37149	32718	32761	
2162	0	35188	33247	34567	32678	32715	
2163	0	37640	32769	32818	32819	32794	
2164	0	38437	32711	34276	32721	32637	
2165	0	37864	32352	36278	32557	32829	
2166	0	36157	32227	38355	32669	32887	
2167	0	34212	32411	38694	32527	32671	
2168	0	32248	32725	35401	32600	32898	
2169	0	29240	33140	30211	32819	32868	
2170	0	26799	32877	30470	32656	32706	
2171	0	25878	32952	31218	32511	32940	
2172	0	26136	33080	24600	32663	32967	
2173	0	28006	32982	17454	32929	32711	
2174	0	30871	33105	18055	33071	32711	
2175	0	33628	33273	25339	33123	32866	
2176	0	35261	33046	36404	33138	33016	
2177	0	34784	33031	42938	32912	32851	
2178	0	33586	32343	43011	32794	32731	
2179	0	30661	32590	41407	32888	32957	
2180	0	27700	32787	41966	32855	33055	
2181	0	27713	33359	43245	32834	32902	
2182	0	29541	33852	41463	32775	33065	
2183	0	31961	33862	28850	32706	32808	
2184	0	34573	33417	12745	32728	32796	
2185	0	36800	32042	6614	32494	32921	
2186	0	38085	30267	14139	32745	33017	
2187	0	38600	29161	26061	32879	32787	
2188	0	37216	28564	35541	32976	32735	
2189	0	35832	29826	42889	33057	32748	
2190	0	34272	32035	46432	33103	32775	
2191	0	33197	34399	45023	32732	32839	
2192	0	32946	36202	39494	32664	32868	
2193	0	33678	36870	34857	32654	32623	
2194	0	35136	36267	29209	32608	32809	
2195	0	35818	34479	19609	32609	32797	
2196	0	36756	32761	17357	33021	32650	
2197	0	36824	31512	26618	32893	32696	
2198	0	35830	30952	38639	32757	32853	
2199	0	35334	30700	45842	32932	32929	
2200	0	34988	30339	49990	32907	32737	
2201	0	33920	29848	45447	32883	32749	
2202	0	33842	29594	36690	32850	32932	
2203	0	33006	30436	28533	32805	32912	
2204	0	32145	31568	29395	32832	32732	
2205	0	30838	32519	33586	32868	33009	
2206	0	28486	33626	28536	32989	32889	
2207	0	25812	34328	22079	32918	32801	
2208	0	24186	33900	13174	32903	32966	
2209	0	23144	32765	19403	32773	32848	
2210	0	23608	32170	30641	32666	33027	
2211	0	26540	31833	42293	32796	32822	
2212	0	30400	32533	46949	32784	32699	
2213	0	33756	32731	45444	32735	32721	
2214	0	36688	32928	36832	32642	32929	
2215	0	36202	33119	28454	32685	32902	
2216	0	34422	33419	26509	32705	32789	
2217	0	32377	33382	30844	32745	32877	
2218	0	32052	33363	35087	32934	32892	
2219	0	32792	32701	32287	32873	32832	
2220	0	34858	32421	27553	32792	32957	
2221	0	37397	31963	30351	32855	32775	
2222	0	38770	32015	36260	32683	32933	
2223	0	39643	32869	37871	32549	32692	
2224	0	39882	33710	37939	32452	32723	
2225	0	37873	34240	39239	32506	32859	
2226	0	35111	34062	39053	32663	32773	
2227	0	31789	33653	37031	32823	32911	
2228	0	28464	33151	36256	32743	32710	
2229	0	27079	32671	36475	32821	32903	
2230	0	27378	32869	32429	32831	32775	
2231	0	28584	33149	25908	32687	32956	
2232	0	29874	33385	22715	32854	32873	
2233	0	31547	33615	26870	32789	33023	
2234	0	33093	32825	29331	32723	32833	
2235	0	34424	31885	26963	32637	32688	
2236	0	35592	31283	26529	32765	32809	
2237	0	35962	31589	32543	32809	32615	
2238	0	35889	32311	34943	32647	32731	
2239	0	35015	33227	35465	32722	32963	
2240	0	33351	33518	37887	32758	32955	
2241	0	31237	33448	45904	32685	32848	
2242	0	29584	32548	53170	33078	33150	
2243	0	28340	31681	50521	33051	32962	
2244	0	26884	31064	36049	33097	32804	
2245	0	26256	31040	19360	33068	33004	
2246	0	26725	31560	5930	32936	33075	
2247	0	27276	32118	4969	32923	33079	
2248	0	29334	32835	18210	33014	32792	
2249	0	32840	32942	30874	32775	32749	
2250	0	37056	33251	37136	32826	32853	
2251	0	40346	33376	44410	32716	32636	
2252	0	42388	33235	47087	32542	32817	
2253	0	41738	32976	43176	32274	32980	
2254	0	39385	32875	29471	32440	32690	
2255	0	35980	33128	16215	32219	32932	
2256	0	33274	33256	20422	32419	32846	
2257	0	31385	33590	35618	32421	32704	
2258	0	28745	33926	44612	32638	32969	
2259	0	25097	34301	43903	32775	33053	
2260	0	22833	34032	34171	32913	32800	
2261	0	22844	33861	27415	33146	33005	
2262	0	25212	33837	30951	32848	32909	
2263	0	29979	33627	36171	32820	32908	
2264	0	35760	32422	36096	32914	32927	
2265	0	38764	30835	28908	33025	32812	
2266	0	39943	29747	24509	33082	33016	
2267	0	39100	29191	25886	33287	33023	
2268	0	38022	29861	27885	33087	32711	
2269	0	37692	31127	31040	32881	32805	
2270	0	38260	32759	33938	33040	32872	
2271	0	38838	33573	34498	32638	32753	
2272	0	37439	33666	38243	32535	32705	
2273	0	34719	33822	40481	32692	32899	
2274	0	31500	33552	42654	32688	32608	
2275	0	29914	33162	45624	32617	32802	
2276	0	31108	32750	48848	32824	32516	
2277	0	32146	33137	46680	32787	32671	
2278	0	32352	33952	36173	32676	32903	
2279	0	31945	34810	28688	32543	32731	
2280	0	31747	35264	24390	32839	32800	
2281	0	30536	33865	18316	32898	33005	
2282	0	29333	31568	20722	32989	32984	
2283	0	27450	29057	22629	33266	32787	
2284	0	25912	26928	24505	33126	32673	
2285	0	25732	26319	25901	33078	32719	
2286	0	27041	27451	28155	32898	32937	
2287	0	29245	29871	36170	32635	32799	
2288	0	32400	32032	40455	32491	32996	
2289	0	36335	33992	38611	32354	32741	
2290	0	38893	35219	35273	32409	32786	
2291	0	38692	35760	31201	32453	32773	
2292	0	38232	36079	29349	32451	32630	
2293	0	38220	35840	26546	32797	32967	
2294	0	37509	35711	25027	32775	32770	
2295	0	36261	34655	27173	32896	32967	
2296	0	37273	33647	29463	32770	32771	
2297	0	37962	32065	30656	32775	32954	
2298	0	36291	31711	31321	32696	32999	
2299	0	32932	31916	33055	32740	32837	
2300	0	30328	32187	36655	32805	32775	
2301	0	28542	32020	42100	32821	32976	
2302	0	28124	32553	45653	32945	32656	
2303	0	28377	32413	47222	32839	32824	
2304	0	29347	32511	46839	32751	32801	
2305	0	30241	32369	41917	32630	32815	
2306	0	31017	32896	33038	32613	32975	
2307	0	30788	32877	25736	32726	32751	
2308	0	30392	32339	28867	32904	32963	
2309	0	29490	31996	34039	32919	32711	
2310	0	29078	32370	35975	32976	32879	
2311	0	29328	33007	36519	32967	32839	
2312	0	30022	33703	35513	33298	33027	
2313	0	31160	34130	32870	33106	32850	
2314	0	31132	34695	28413	32680	32755	
2315	0	31266	34182	22262	32797	32880	
2316	0	31482	33473	21972	32744	32647	
2317	0	31333	32156	19633	32751	32846	
2318	0	31884	31476	15814	32630	32873	
2319	0	32899	31367	17899	32613	32677	
2320	0	35002	31751	23891	32667	32997	
2321	0	36792	32771	29755	32614	32775	
2322	0	37776	33360	36187	32671	32954	
2323	0	38354	33211	40495	32704	32931	
2324	0	39078	32960	44102	32741	32995	
2325	0	39816	32419	48980	32816	32674	
2326	0	40506	31766	51426	33062	32818	
2327	0	38909	31495	50347	32986	32663	
2328	0	35728	31585	46891	33049	32931	
2329	0	32537	31427	39106	32912	32991	
2330	0	28773	31528	27920	32882	32816	
2331	0	26576	32295	16968	32952	33015	
2332	0	25218	32765	12994	32741	32888	
2333	0	26414	33174	20626	32522	32863	
2334	0	28920	33650	34802	32759	33003	
2335	0	31576	34098	35925	32565	32966	
2336	0	33180	33838	25693	32403	32822	
2337	0	33614	33335	22506	32679	32671	
2338	0	32620	33057	25135	32711	32788	
2339	0	30455	32457	31297	32815	32952	
2340	0	28464	32627	35365	32665	32943	
2341	0	27814	32549	37712	32787	32849	
2342	0	27856	32154	40600	32877	32853	
2343	0	30131	32133	42595	32943	32873	
2344	0	32216	32183	41251	32775	32945	
2345	0	35518	32999	38513	32606	32984	
2346	0	37872	34264	37383	32496	32878	
2347	0	38127	34637	35937	32723	32617	
2348	0	37423	35048	31851	32704	32839	
2349	0	36325	35009	30097	32664	32921	
2350	0	34374	34591	27245	33029	32719	
2351	0	32450	33737	28298	32803	32879	
2352	0	31706	31675	30247	32768	33005	
2353	0	31452	29037	33381	33086	32863	
2354	0	31804	27002	35392	33110	32894	
2355	0	32675	26691	34183	33144	33031	
2356	0	34614	28004	33919	32874	32775	
2357	0	37820	30264	37298	32846	32803	
2358	0	38944	32619	37492	32922	33053	
2359	0	39376	34323	39233	32993	32803	
2360	0	39076	35007	34216	32973	33005	
2361	0	38152	34528	20050	32720	32812	
2362	0	36744	33783	10690	32356	32966	
2363	0	34298	33513	11260	32643	32967	
2364	0	30664	33635	17833	32565	32803	
2365	0	28505	34227	25071	32787	32899	
2366	0	28354	34384	32336	33060	32529	
2367	0	29801	33106	37383	32933	32696	
2368	0	32536	31293	41499	32760	32784	
2369	0	34941	30349	45474	32793	32591	
2370	0	37104	30511	44387	32647	32839	
2371	0	37094	31739	41744	32672	32793	
2372	0	33540	32522	37178	32673	32723	
2373	0	29202	33376	34400	32699	32939	
2374	0	25572	34355	34672	32647	32855	
2375	0	23074	35165	35182	32820	32718	
2376	0	22857	35562	38530	32807	32800	
2377	0	26243	35207	39599	32775	32903	
2378	0	30090	34246	37176	32951	32687	
2379	0	32552	32170	35287	32924	32867	
2380	0	35412	30093	38158	32875	32923	
2381	0	37098	29266	36573	32839	32993	
2382	0	36736	30081	30444	32839	32804	
2383	0	35050	31543	26780	32835	32844	
2384	0	32826	32860	24009	32973	32896	
2385	0	30019	33429	26721	32965	33005	
2386	0	27948	32520	26482	32952	32799	
2387	0	26690	31751	21275	33006	32749	
2388	0	26756	31767	22487	32775	32879	
2389	0	27841	31675	27962	32751	33051	
2390	0	30446	31937	34681	32704	32988	
2391	0	33592	32089	37571	32708	32730	
2392	0	35897	32480	41933	32521	32861	
2393	0	37769	33050	40864	32313	32881	
2394	0	37890	33859	38023	32186	32775	
2395	0	36608	34335	31603	32163	32886	
2396	0	34955	34165	29183	32330	32690	
2397	0	34286	34531	33081	32431	32945	
2398	0	33536	34161	38125	32397	32758	
2399	0	33928	34182	38859	33011	32867	
2400	0	34358	33773	32998	33605	32701	
2401	0	35112	34280	21970	33634	32803	
2402	0	36321	33851	16967	33685	32925	
2403	0	37456	32608	22444	33186	32689	
2404	0	37119	31391	31461	32822	32839	
2405	0	35634	31137	37307	32619	32869	
2406	0	33453	31585	40475	32632	32693	
2407	0	31047	32040	43438	32696	32746	
2408	0	28351	32159	44493	32710	32869	
2409	0	26113	31987	44891	32813	32980	
2410	0	26356	31461	42179	32703	32925	
2411	0	27028	31834	37895	32631	32923	
2412	0	28461	32037	35079	32461	32896	
2413	0	29645	33015	35505	32487	32915	
2414	0	31099	33397	28657	32616	32640	
2415	0	30948	33624	18308	32622	32802	
2416	0	29976	33538	11821	32719	32868	
2417	0	30088	33943	20126	32790	32676	
2418	0	29801	33791	35271	32616	32873	
2419	0	30517	34026	42433	32531	32643	
2420	0	33053	33535	41759	32625	32926	
2421	0	36416	32851	35365	32669	32775	
2422	0	39268	31544	24897	32853	32974	
2423	0	39494	30258	21268	33130	32911	
2424	0	38377	29469	22006	33155	32929	
2425	0	36738	29326	21616	33111	32612	
2426	0	34330	29823	21509	32981	32876	
2427	0	31034	31406	27158	32908	32717	
2428	0	29461	33371	34498	32709	32846	
2429	0	30432	34527	39256	32651	32797	
2430	0	33548	35589	40184	32513	32898	
2431	0	36272	35863	40530	32628	33049	
2432	0	38132	36081	41414	32667	32886	
2433	0	38608	36341	43362	32510	33104	
2434	0	36928	37213	45833	32653	32855	
2435	0	32912	36953	46941	32822	33005	
2436	0	30651	35798	43784	33002	32861	
2437	0	30892	32898	37469	33177	33097	
2438	0	33791	30088	30131	33184	32829	
2439	0	36468	27534	24723	33062	33046	
2440	0	38291	25695	23528	33273	32740	
2441	0	38815	25771	25295	33179	33079	
2442	0	37101	27053	25425	33057	32975	
2443	0	34866	29912	23847	32713	32775	
2444	0	33449	32721	24965	32658	32997	
2445	0	31967	34371	29511	32491	32795	
2446	0	30254	34730	31973	32637	33047	
2447	0	27877	33978	30599	32711	32733	
2448	0	26570	32927	27005	32723	32917	
2449	0	25685	31809	27558	32603	32786	
2450	0	25908	31491	32559	32585	32553	
2451	0	26403	31691	36806	32535	32889	
2452	0	26435	32687	39021	32516	32683	
2453	0	26886	33461	38461	32845	32711	
2454	0	28178	34640	39071	32785	32591	
2455	0	28914	35377	39539	32741	32823	
2456	0	29370	35811	38738	32859	32910	
2457	0	30757	34727	36727	32839	32721	
2458	0	34630	34148	33692	32803	32910	
2459	0	39975	33505	33229	32793	32822	
2460	0	43065	33426	33619	33079	32799	
2461	0	44343	33442	31729	32878	32878	
2462	0	42991	33396	28667	32637	32775	
2463	0	39472	33182	29740	32547	32836	
2464	0	35164	31568	35152	32832	32952	
2465	0	30972	29954	41152	32775	32695	
2466	0	29226	29320	34256	32635	32914	
2467	0	28704	29271	23105	33000	32706	
2468	0	28261	29988	27282	32930	32977	
2469	0	28128	30809	38260	32658	32870	
2470	0	28779	31853	45450	32627	32950	
2471	0	29344	32975	47751	32597	32731	
2472	0	31188	34133	41250	32623	32815	
2473	0	32026	34360	29047	32560	32621	
2474	0	32922	34578	17446	32848	32720	
2475	0	33212	34935	15714	32957	32580	
2476	0	32064	34488	16547	32976	32923	
2477	0	29360	33995	17899	32770	32912	
2478	0	27680	33594	24873	32720	32952	
2479	0	26788	33645	30391	32679	32813	
2480	0	27386	33543	37895	32728	32737	
2481	0	30704	33159	42104	32864	32865	
2482	0	36700	32832	42429	32961	32608	
2483	0	42608	31784	36976	33094	32945	
2484	0	45161	30727	33317	33159	32873	
2485	0	45359	30295	31129	33061	32834	
2486	0	43382	30585	29840	32992	32983	
2487	0	39317	31343	34592	32853	32967	
2488	0	35644	32517	41170	32649	32914	
2489	0	32148	33516	38747	32668	32964	
2490	0	28828	33967	34552	32647	32775	
2491	0	26616	34209	37046	32477	32973	
2492	0	25777	33663	42488	32592	32716	
2493	0	25751	33828	39227	32685	32863	
2494	0	26164	33570	28423	32732	32636	
2495	0	26528	33443	18384	32560	32775	
2496	0	27736	32647	14761	32824	32827	
2497	0	28272	32261	23192	32792	32839	
2498	0	28674	32363	36145	32764	32885	
2499	0	29850	32619	43762	32733	32946	
2500	0	32973	32040	42446	33000	32787	
2501	0	35205	31053	31838	32933	32960	
2502	0	36327	30536	21954	32998	32656	
2503	0	37500	30334	17441	33114	32873	
2504	0	37006	30694	23836	32873	32715	
2505	0	35508	31524	34512	32437	32880	
2506	0	35584	32460	39663	32433	32991	
2507	0	37446	33273	40839	32451	32804	
2508	0	38399	33734	42368	32937	32957	
2509	0	39488	33810	43658	33080	32903	
2510	0	39416	34395	42745	32748	32961	
2511	0	38269	35273	32223	32736	32744	
2512	0	34458	35997	21126	32543	32739	
2513	0	30544	36344	16856	32740	32683	
2514	0	28594	35815	20367	32861	32869	
2515	0	27560	35082	33960	32824	32662	
2516	0	27533	33851	44771	32697	32960	
2517	0	28397	32903	48967	32861	32863	
2518	0	29465	31365	48254	32690	32735	
2519	0	30914	30681	42285	32764	32775	
2520	0	31692	29241	38951	32839	32793	
2521	0	32742	28701	33940	32658	32896	
2522	0	32856	28780	23280	32756	32704	
2523	0	32594	29180	15905	32841	32880	
2524	0	31765	30199	15193	32848	32890	
2525	0	29899	31917	23337	32826	32903	
2526	0	29176	34628	34209	32775	32712	
2527	0	28600	36440	34746	32813	32975	
2528	0	28012	38404	25920	32848	32839	
2529	0	31326	38597	27014	33016	32914	
2530	0	36877	36132	38004	32980	32932	
2531	0	42328	32307	43890	33229	32848	
2532	0	44784	28233	43879	33244	32973	
2533	0	45890	26279	44459	33163	32931	
2534	0	43363	25709	45283	33074	32886	
2535	0	39156	26604	38150	32936	33064	
2536	0	33970	28332	23227	32927	33104	
2537	0	28986	30008	12592	32891	32860	
2538	0	24732	32281	13442	32631	33051	
2539	0	22362	33957	21506	32357	32818	
2540	0	21968	35630	29187	32038	32768	
2541	0	23270	37251	35488	32133	33010	
2542	0	25711	37511	39585	32231	32790	
2543	0	28825	37708	40921	32309	32855	
2544	0	31773	36978	41209	32368	33037	
2545	0	34331	35689	38274	32962	32937	
2546	0	36900	34462	35027	33015	32767	
2547	0	37213	32941	31347	33136	32837	
2548	0	35248	31292	31611	32908	32860	
2549	0	33961	29703	33730	32894	32734	
2550	0	32868	29366	32295	33050	32707	
2551	0	32774	29797	35881	32937	32859	
2552	0	33412	30692	39311	32793	32916	
2553	0	34715	32263	39208	32674	32799	
2554	0	34805	32875	34182	32373	32999	
2555	0	34339	32793	30995	32455	32711	
2556	0	33240	32567	31929	32749	32749	
2557	0	31598	32443	35425	32826	32707	
2558	0	28941	32961	33614	32899	32869	
2559	0	26858	33272	28354	33095	32759	
2560	0	26724	33549	23597	32855	32720	
2561	0	28648	33464	27623	32680	32914	
2562	0	31376	33576	35866	32735	32719	
2563	0	34659	34339	40243	32526	32789	
2564	0	36160	34096	33658	32449	32946	
2565	0	36418	33477	29529	32641	32711	
2566	0	35861	32656	28332	32615	32961	
2567	0	35972	31931	28765	32587	32759	
2568	0	35609	31547	27202	32997	32955	
2569	0	35163	31674	28539	32995	32800	
2570	0	34416	31765	34509	32839	32795	
2571	0	33792	32092	35433	32957	32919	
2572	0	32500	32749	36269	32850	32734	
2573	0	30906	32873	35571	32717	32997	
2574	0	30847	32921	32221	32894	32835	
2575	0	32696	32928	25474	32652	32982	
2576	0	35527	33315	20644	32539	33067	
2577	0	37848	34119	24523	32497	32967	
2578	0	37997	35156	32321	32753	32952	
2579	0	35876	35590	37245	32887	32652	
2580	0	32420	35182	39010	32811	32627	
2581	0	29748	33356	38227	32867	32767	
2582	0	28785	31943	39332	32912	32919	
2583	0	28892	30153	41272	32971	32680	
2584	0	29276	28576	44220	33168	32848	
2585	0	29176	28528	43655	33106	32630	
2586	0	29524	28925	35719	32957	32896	
2587	0	29923	30144	23956	32976	32896	
2588	0	31532	31660	16262	32733	32712	
2589	0	34045	33165	17646	32879	32652	
2590	0	35433	33994	25084	32429	32860	
2591	0	34965	34195	35609	32629	33088	
2592	0	32981	33899	39943	32775	32960	
2593	0	31076	33209	39657	32839	32839	
2594	0	29104	32741	40967	32815	32813	
2595	0	28191	33095	41549	32914	33003	
2596	0	28597	33321	41474	32709	32951	
2597	0	30842	33623	39378	32462	32831	
2598	0	34754	34278	37588	32495	32621	
2599	0	39915	34438	33399	32397	32827	
2600	0	43514	34360	25536	32488	32902	
2601	0	44022	33781	15984	32669	32807	
2602	0	41085	32662	15632	32499	32784	
2603	0	36678	31054	20193	33200	33053	
2604	0	32200	30054	30424	33008	32956	
2605	0	27842	29576	42611	32833	32775	
2606	0	25224	29915	47949	32747	32915	
2607	0	25152	31230	40678	32993	32954	
2608	0	25970	32807	35271	32953	32891	
2609	0	26538	34086	30119	32678	32827	
2610	0	26533	35512	27593	32785	32827	
2611	0	27269	36043	24624	32619	32930	
2612	0	28780	36429	25735	32763	32833	
2613	0	31200	35263	28095	32689	32953	
2614	0	34669	33159	27888	32809	33040	
2615	0	40210	31143	23979	33000	32816	
2616	0	45589	30333	28460	33181	32711	
2617	0	48688	30616	41452	32966	32950	
2618	0	46288	31117	46811	32740	33051	
2619	0	40716	31960	51325	33085	32817	
2620	0	33137	32721	48338	33114	32642	
2621	0	26960	32498	37155	32582	32940	
2622	0	23378	32274	22233	32337	32786	
2623	0	22294	33076	11830	32620	33086	
2624	0	21729	33775	11530	32562	32727	
2625	0	21808	34914	21284	32580	32931	
2626	0	23220	36164	37437	32620	32821	
2627	0	26972	36986	49074	32736	32956	
2628	0	31098	35323	46757	32874	32784	
2629	0	36062	32704	31216	33392	32828	
2630	0	41075	30384	21860	33416	32991	
2631	0	44438	27983	21207	32739	32747	
2632	0	43719	26660	29458	32696	32922	
2633	0	41141	26699	37789	32798	32795	
2634	0	38000	27047	38793	32803	32672	
2635	0	35256	27517	42618	32848	32870	
2636	0	33163	29319	47367	32543	32579	
2637	0	31634	31911	41425	32301	32918	
2638	0	30272	33774	30672	32359	32680	
2639	0	28507	34964	19961	32547	32832	
2640	0	27602	36517	16382	32697	32898	
2641	0	28326	37011	25874	32755	32786	
2642	0	31052	37343	35530	32685	32903	
2643	0	35465	36691	38656	32636	32963	
2644	0	38981	34994	40630	32819	32671	
2645	0	40882	32768	42178	32968	32853	
2646	0	39431	31131	41927	32863	32973	
2647	0	35859	30968	41538	32709	32704	
2648	0	32338	31934	41765	32775	32997	
2649	0	29191	32851	38061	32775	32843	
2650	0	27284	33852	26798	33038	32787	
2651	0	27458	33647	16127	32941	32930	
2652	0	28925	33287	19781	33095	32800	
2653	0	30225	32263	30849	32900	32963	
2654	0	30294	31951	37437	32539	32889	
2655	0	28525	32152	40296	32456	32755	
2656	0	27373	31935	42471	32620	32775	
2657	0	27142	32646	41037	32557	32979	
2658	0	28592	33012	29586	32690	32816	
2659	0	31021	33832	15908	32774	32708	
2660	0	34704	34280	15038	32677	32837	
2661	0	37221	33704	29944	32893	32711	
2662	0	36836	33431	41643	32743	32880	
2663	0	35570	32823	43312	32815	32967	
2664	0	34476	32621	40293	32845	32738	
2665	0	32969	32563	34283	32823	32955	
2666	0	30705	32623	30012	32623	32634	
2667	0	28080	32661	23972	32837	32844	
2668	0	27162	32119	20392	32820	32618	
2669	0	27523	32170	25111	32797	32762	
2670	0	28949	32566	31431	33176	32675	
2671	0	31790	32674	38874	33036	32878	
2672	0	33732	33214	44102	33034	32803	
2673	0	34872	33117	47540	33057	32781	
2674	0	34569	33060	49947	32711	33007	
2675	0	35189	32482	47468	32443	32775	
2676	0	36260	32416	33248	32364	32736	
2677	0	35586	32669	10834	32582	32820	
2678	0	35299	33419	2687	32585	32740	
2679	0	34544	34055	9340	32556	32985	
2680	0	35142	33748	24106	32554	32717	
2681	0	38653	33460	35478	32839	32963	
2682	0	42747	33148	38175	32939	32711	
2683	0	44634	32837	39475	32848	32944	
2684	0	43823	33052	40539	32884	32743	
2685	0	40084	32341	37875	32989	32890	
2686	0	34940	31012	34239	33037	32902	
2687	0	29557	30215	35386	33233	32937	
2688	0	25927	29178	32748	33147	32725	
2689	0	23657	29603	28024	32890	32821	
2690	0	22884	29912	24124	32560	32801	
2691	0	24182	31006	23785	32305	32703	
2692	0	26972	32013	28594	32623	32941	
2693	0	31111	33059	30407	32895	32694	
2694	0	33788	33586	32720	33046	32962	
2695	0	34100	33691	39154	32775	32898	
2696	0	32488	34402	46948	32539	33071	
2697	0	30727	33859	49104	32657	32743	
2698	0	28905	33287	49590	32550	32914	
2699	0	28830	32933	47917	32643	32684	
2700	0	30309	33957	44679	32492	32999	
2701	0	32573	34916	35498	32568	32849	
2702	0	35329	35824	18075	32545	33001	
2703	0	37968	35976	8281	33042	33091	
2704	0	39273	35129	12316	33167	32775	
2705	0	38384	33829	21900	33199	32929	
2706	0	36032	32455	31486	33227	32745	
2707	0	34616	30516	36673	33115	32982	
2708	0	33740	28625	42493	33170	32832	
2709	0	33323	28119	45377	32791	32899	
2710	0	33024	28745	35271	32365	32741	
2711	0	32600	29682	24582	32397	32916	
2712	0	31203	31135	23105	32511	32710	
2713	0	29713	31553	28540	32603	32933	
2714	0	27590	32380	35711	32660	32793	
2715	0	26288	32477	39595	32839	32647	
2716	0	26445	32845	38937	32617	32818	
2717	0	28293	32989	39157	32833	32963	
2718	0	31576	33095	36901	32826	32743	
2719	0	34962	33280	38168	32897	32985	
2720	0	36517	33232	39251	33447	32943	
2721	0	36596	33063	39011	33107	32702	
2722	0	35618	33127	34558	32868	32908	
2723	0	34148	33397	23616	32775	32678	
2724	0	32473	33672	12374	32289	32856	
2725	0	31864	34846	16270	32792	32788	
2726	0	30652	35167	27563	32476	32688	
2727	0	28956	35237	29991	32381	32980	
2728	0	27666	35015	27870	32647	32849	
2729	0	27995	34039	29624	32757	32703	
2730	0	30317	32923	35739	32568	33015	
2731	0	33497	31993	41616	32546	33042	
2732	0	37212	31940	49351	32704	32850	
2733	0	39780	32433	55926	32676	32718	
2734	0	41322	32923	53617	32793	32873	
2735	0	38644	32967	47343	32698	32765	
2736	0	34819	31943	40870	32995	32688	
2737	0	31474	30180	29085	33108	32904	
2738	0	29026	28394	13006	33382	32804	
2739	0	28388	28325	1029	33007	32922	
2740	0	28875	29616	3199	32761	32898	
2741	0	30140	31290	20524	32692	32966	
2742	0	31424	33306	40141	32536	32912	
2743	0	32520	34091	48916	32219	32992	
2744	0	34468	34919	48189	32163	32863	
2745	0	36283	35379	39673	32327	32793	
2746	0	38488	36173	27772	32720	32917	
2747	0	40496	36002	20619	32918	32959	
2748	0	39340	35015	15931	33261	32884	
2749	0	37252	33626	23358	33174	32763	
2750	0	34356	32646	34083	32890	32856	
2751	0	32333	32398	37126	32819	32688	
2752	0	30848	32418	37097	32596	32775	
2753	0	30842	32641	40121	32607	32636	
2754	0	31253	32159	42194	32809	32827	
2755	0	29816	31351	39540	32603	32888	
2756	0	27002	30125	33937	32852	32652	
2757	0	25540	30663	29797	32811	32946	
2758	0	25272	31497	27413	32775	32807	
2759	0	25937	32289	25281	33082	32851	
2760	0	27819	32583	29699	33231	32937	
2761	0	30502	32815	32304	33338	32827	
2762	0	34802	31962	31504	32987	33031	
2763	0	38644	31719	35335	32760	32793	
2764	0	41972	32205	40738	32632	33144	
2765	0	43330	33392	42559	32574	32795	
2766	0	42640	34667	38791	32551	32941	
2767	0	39691	35092	34111	32521	32569	
2768	0	35692	34887	31128	32449	32549	
2769	0	31767	35133	30343	32432	32819	
2770	0	29677	34571	29819	32695	32569	
2771	0	28618	33668	34075	32880	32839	
2772	0	28204	32875	38257	32930	32989	
2773	0	28066	31899	43250	32859	32727	
2774	0	27638	31505	38767	32813	32918	
2775	0	26938	31032	31674	32835	33080	
2776	0	26018	30983	26040	32666	33065	
2777	0	25189	31597	30783	32759	32827	
2778	0	25890	32089	31763	32592	32611	
2779	0	28208	32584	24800	32400	32846	
2780	0	31204	31959	20912	32720	32961	
2781	0	34924	31271	23559	32853	32805	
2782	0	37301	30888	28133	32950	32815	
2783	0	38534	31741	31328	33324	32971	
2784	0	39040	33176	32545	33144	32770	
2785	0	38364	33827	34806	32985	32850	
2786	0	36653	34035	37339	33042	32871	
2787	0	34603	33351	38269	32939	32737	
2788	0	32578	32094	40285	32987	32773	
2789	0	32180	30898	41615	32837	32717	
2790	0	33448	30783	41383	32632	32933	
2791	0	35348	32167	42710	32681	32770	
2792	0	35472	33387	39853	32746	33034	
2793	0	34378	34450	34485	32860	32676	
2794	0	33588	34612	23332	32917	32868	
2795	0	33368	33760	13370	32855	33080	
2796	0	32345	32195	9762	32969	33165	
2797	0	32493	30375	14683	33084	32947	
2798	0	33786	29575	19794	33152	32751	
2799	0	35002	29071	29064	32967	32860	
2800	0	36604	29780	39746	32572	32936	
2801	0	36525	31128	43871	32334	32959	
2802	0	33712	32343	43298	32551	32737	
2803	0	30177	33859	41863	32358	32973	
2804	0	26441	34580	39002	32341	32909	
2805	0	23482	35127	37697	32353	32723	
2806	0	22525	34559	36231	32398	32893	
2807	0	23810	34275	34867	32519	32903	
2808	0	28048	35054	39867	32516	32775	
2809	0	32648	34992	46066	32283	32919	
2810	0	35207	34907	45363	32184	32681	
2811	0	36800	34139	41081	32583	32799	
2812	0	39528	33668	35712	33218	32938	
2813	0	40006	33674	28582	33336	32816	
2814	0	38216	33592	21588	32944	32719	
2815	0	37533	32746	16645	32922	32988	
2816	0	36783	32579	17592	33081	32763	
2817	0	35600	31849	21483	33127	32624	
2818	0	33836	30795	22199	33159	32853	
2819	0	32322	30855	23801	33077	33147	
2820	0	31012	31634	30663	33208	33022	
2821	0	29706	32484	39608	32941	32838	
2822	0	28420	33760	45592	32744	32957	
2823	0	27444	33623	47323	32898	32603	
2824	0	28056	32277	43551	32700	32870	
2825	0	29394	31490	40063	32599	32973	
2826	0	31804	30822	40680	32469	32726	
2827	0	34294	30889	37275	32454	32816	
2828	0	35488	31090	25760	32646	32869	
2829	0	34420	32523	17469	32847	32717	
2830	0	32832	33422	20350	32875	32802	
2831	0	31263	33339	24355	32740	32885	
2832	0	30238	33333	21171	32386	32694	
2833	0	30274	32809	16600	32402	32757	
2834	0	32393	32255	23875	32229	32916	
2835	0	34532	32337	35586	32313	32773	
2836	0	36720	32228	44458	32741	32896	
2837	0	38880	31938	48396	33315	32930	
2838	0	38984	32082	45143	33436	32687	
2839	0	37683	32071	40002	33131	32827	
2840	0	35942	32549	37063	32725	32965	
2841	0	34740	33959	32559	32506	32762	
2842	0	33638	35137	28409	32361	33052	
2843	0	30904	35810	25202	32765	32775	
2844	0	28555	34967	30498	32945	32971	
2845	0	27517	33112	37121	33096	32844	
2846	0	27643	32051	39643	33275	33025	
2847	0	27613	31657	41647	33235	32730	
2848	0	28348	31527	39336	32883	33056	
2849	0	28749	31664	33988	32775	32883	
2850	0	27972	30792	22995	32972	32868	
2851	0	28506	29586	21671	32988	32831	
2852	0	30800	29511	29785	32938	32955	
2853	0	33669	30384	34651	32606	32698	
2854	0	36258	31840	39581	32574	32987	
2855	0	38712	33299	42619	32722	32743	
2856	0	39560	34666	42222	32892	32853	
2857	0	37299	34640	42854	33223	32931	
2858	0	34352	34352	39111	32947	32610	
2859	0	31940	34420	28464	32340	32772	
2860	0	31657	34950	10498	32170	32845	
2861	0	34668	35113	3325	32531	32696	
2862	0	36267	34869	8021	32597	32863	
2863	0	35957	33726	21021	32848	32631	
2864	0	34754	31793	34915	32909	32925	
2865	0	32377	29859	44105	33136	32802	
2866	0	30322	28452	48901	33027	32992	
2867	0	29568	28490	51552	32737	32944	
2868	0	29191	29702	52285	32571	32827	
2869	0	28358	31496	45119	32611	33107	
2870	0	29306	32812	32240	32648	32845	
2871	0	31344	34755	18362	32672	33084	
2872	0	33718	35244	10443	32289	32765	
2873	0	36888	35303	11565	32601	32916	
2874	0	39889	34649	20640	32978	32753	
2875	0	41202	33706	32980	32838	33028	
2876	0	38608	33244	47312	32762	32732	
2877	0	35000	33320	52896	32997	32815	
2878	0	31246	33231	50725	33164	32849	
2879	0	28426	33594	45247	33008	32806	
2880	0	28132	32738	42525	33035	32743	
2881	0	28544	32187	38152	32886	32813	
2882	0	27290	31388	25332	32818	32936	
2883	0	26984	31273	15053	32433	32640	
2884	0	28098	31079	15691	32487	32917	
2885	0	29526	31110	23493	32615	32879	
2886	0	31810	31525	30788	32694	32860	
2887	0	35103	32117	33747	32819	32771	
2888	0	36690	32128	30091	32821	32967	
2889	0	37718	32002	25486	32855	32743	
2890	0	38399	32101	27096	32853	32916	
2891	0	37908	32800	34848	32768	32807	
2892	0	36477	33631	41117	32775	32756	
2893	0	34730	34210	39309	32733	32983	
2894	0	33685	34565	38637	32639	32708	
2895	0	33629	34073	41607	32643	32917	
2896	0	32766	33357	43178	32512	32664	
2897	0	31603	32215	42311	32601	32869	
2898	0	31346	32481	35817	32751	32762	
2899	0	31188	32478	29778	32467	33069	
2900	0	29093	33088	29729	32676	32770	
2901	0	27718	33686	38292	32786	32970	
2902	0	27713	34758	42455	32797	32775	
2903	0	27920	35234	39106	32886	33007	
2904	0	28920	35075	31805	32676	32979	
2905	0	30609	33876	26575	32487	32813	
2906	0	31984	33287	22881	32390	32938	
2907	0	32877	31529	19894	33010	32816	
2908	0	33697	30084	13198	33341	32708	
2909	0	33623	28381	6738	33453	32860	
2910	0	33884	27304	10715	33314	32922	
2911	0	34013	27672	26852	33081	32603	
2912	0	33658	28788	38148	32720	32902	
2913	0	34728	30565	44198	32635	32902	
2914	0	36537	32306	45656	32390	32784	
2915	0	37703	34310	46171	32387	32664	
2916	0	39509	35975	44359	32576	32828	
2917	0	40352	36797	43077	32505	32928	
2918	0	39804	36493	44575	33051	32883	
2919	0	38202	35497	45575	33222	32681	
2920	0	35488	33557	46295	33048	32893	
2921	0	32822	32403	42514	33042	32789	
2922	0	29418	31952	34680	32898	32868	
2923	0	26404	32263	24782	33001	32770	
2924	0	24330	32801	18361	32964	32905	
2925	0	23028	33344	11564	32819	32960	
2926	0	23232	33626	10763	33006	32747	
2927	0	25658	32960	21303	32770	32731	
2928	0	29125	32420	32068	32583	33007	
2929	0	31731	31465	33198	32720	32907	
2930	0	32159	30532	26805	32699	32812	
2931	0	33736	30774	27774	32713	33037	
2932	0	35684	31650	36262	32615	33108	
2933	0	36720	32495	42457	32455	32910	
2934	0	37124	33037	42703	32361	32775	
2935	0	37948	33515	40437	32445	32839	
2936	0	38912	33842	37080	32414	32809	
2937	0	39140	33901	33323	32522	32679	
2938	0	37670	33709	32207	32616	32824	
2939	0	35195	33683	33767	32706	32951	
2940	0	33986	33095	36141	33215	32607	
2941	0	32140	31992	33974	33136	32805	
2942	0	29755	30688	28740	32676	32997	
2943	0	28671	30107	28203	32666	32743	
2944	0	29127	31023	30611	32870	32914	
2945	0	31220	34100	33744	33056	32825	
2946	0	33654	36902	41808	32965	32821	
2947	0	35166	38214	48290	32982	32740	
2948	0	35346	36895	47099	33167	32741	
2949	0	32795	33071	41167	33108	32935	
2950	0	30591	28132	34856	33033	32688	
2951	0	28362	24665	27369	33043	32733	
2952	0	27181	24383	21952	32718	32855	
2953	0	27908	26715	20392	32597	32696	
2954	0	29444	30167	21584	32664	32955	
2955	0	32557	33113	26595	32277	32729	
2956	0	35145	34819	32349	32452	33065	
2957	0	34692	35748	37746	32517	32825	
2958	0	33434	35453	43420	32679	32880	
2959	0	32219	35023	44510	32775	33046	
2960	0	31449	33998	38135	33006	32807	
2961	0	31324	33760	25178	33158	32986	
2962	0	31005	33473	13657	32880	32966	
2963	0	31103	33254	11872	32583	32717	
2964	0	31650	33147	13527	32731	32953	
2965	0	32093	33947	24893	32401	33012	
2966	0	33522	34273	35186	32257	32856	
2967	0	33930	34657	39075	32435	32941	
2968	0	33198	34681	40455	32560	32876	
2969	0	32129	34887	41571	32551	32763	
2970	0	31482	34294	41991	32882	32695	
2971	0	32308	33135	43763	33006	32807	
2972	0	33938	31751	42202	33028	32916	
2973	0	35808	30607	39205	33080	32759	
2974	0	38693	29970	33368	33019	33081	
2975	0	41602	29755	31544	32933	33183	
2976	0	42584	30456	30299	32870	32912	
2977	0	42160	31346	25964	32766	33012	
2978	0	39657	32435	23134	32655	32843	
2979	0	35748	32439	25351	32681	32654	
2980	0	31305	32791	27742	32761	32952	
2981	0	27084	32886	34435	33068	32987	
2982	0	24808	33202	41417	33007	32795	
2983	0	25049	33099	45107	33023	32775	
2984	0	26917	33671	43991	32839	32553	
2985	0	28872	33785	42999	32603	32816	
2986	0	29992	33587	40647	32591	32615	
2987	0	31706	33390	29538	32845	32923	
2988	0	32172	32928	16322	32834	32753	
2989	0	31140	33084	8890	32843	32801	
2990	0	31393	32904	5849	32575	32871	
2991	0	32737	32460	18141	32827	32677	
2992	0	33282	32225	32190	32829	32849	
2993	0	33181	32247	38756	32912	32672	
2994	0	33081	32301	39785	32863	32819	
2995	0	33561	32617	39595	32859	32848	
2996	0	32766	32895	42432	32691	32744	
2997	0	31200	33783	44719	32549	32853	
2998	0	30727	33942	44059	32687	32953	
2999	0	29187	32951	41671	32899	32719	
3000	0	29682	32131	38751	33113	33069	
3001	0	31738	30860	32576	33035	32804	
3002	0	33616	30424	24726	32997	32942	
3003	0	35299	30697	23403	32626	32775	
3004	0	36624	31665	29703	32568	32916	
3005	0	37168	32528	39170	32461	33047	
3006	0	36474	33793	43492	32363	32826	
3007	0	36504	35291	43090	32571	32815	
3008	0	36391	35995	39024	32839	32775	
3009	0	35655	36166	33561	32953	32541	
3010	0	34564	35048	34640	32960	32795	
3011	0	32825	33246	44700	33052	32688	
3012	0	29904	30783	44551	32978	32679	
3013	0	28872	28802	38182	32785	32874	
3014	0	28708	28400	30488	32794	32930	
3015	0	30502	28307	27339	32797	32987	
3016	0	31058	29921	28119	32959	32882	
3017	0	30812	31211	19528	32761	33035	
3018	0	31417	32352	10484	32688	32740	
3019	0	31936	33970	3882	32644	33035	
3020	0	32082	34482	6086	32768	32796	
3021	0	32967	34533	9573	32696	32729	
3022	0	34681	34092	12818	32683	33029	
3023	0	35904	33621	32251	32669	33017	
3024	0	36128	33124	44039	32733	32758	
3025	0	36157	33022	47469	32815	32903	
3026	0	34560	33219	44575	32857	32751	
3027	0	31451	33388	41872	32884	32795	
3028	0	29414	33473	40785	32727	32758	
3029	0	27364	34183	40083	32647	32738	
3030	0	26258	33748	39558	32573	32851	
3031	0	26982	34049	42603	32447	32561	
3032	0	29314	33922	43591	32375	32843	
3033	0	31748	33942	43443	32454	32583	
3034	0	35808	33053	37733	32929	32917	
3035	0	40104	30822	31608	33604	32626	
3036	0	42701	28487	29977	33550	32947	
3037	0	42082	26947	32960	33206	32795	
3038	0	39879	27653	34322	32942	32793	
3039	0	37412	29672	39178	32472	32977	
3040	0	34384	32341	43750	32325	32873	
3041	0	31981	33815	43123	32685	32912	
3042	0	31329	34055	36449	33081	32817	
3043	0	31202	34138	25964	32898	32795	
3044	0	30802	33990	20069	32506	32995	
3045	0	30526	34149	22706	32817	32805	
3046	0	29444	34218	27251	32519	33050	
3047	0	28014	34311	23527	32601	32853	
3048	0	27438	34978	15859	32936	32940	
3049	0	27418	34360	21640	32666	32766	
3050	0	27958	34195	31350	32505	32964	
3051	0	29387	33960	38343	32468	32698	
3052	0	31321	34273	39922	32797	32883	
3053	0	32020	34480	36992	32915	32989	
3054	0	32852	34381	30426	33154	32794	
3055	0	35248	34249	22885	33216	32883	
3056	0	37378	33503	20791	33241	32786	
3057	0	38644	33012	26334	32824	32809	
3058	0	39113	32153	34219	32732	33000	
3059	0	39014	30567	38971	32812	32845	
3060	0	38690	28973	40047	33142	32952	
3061	0	37362	27766	42011	33213	32797	
3062	0	36187	27655	42842	33178	32933	
3063	0	34916	28096	40999	32914	32762	
3064	0	32676	29216	41472	32742	33005	
3065	0	31140	30157	44066	32487	32801	
3066	0	30849	31791	43587	32443	32982	
3067	0	28985	33159	37822	32381	32731	
3068	0	27414	34002	29634	32464	32866	
3069	0	26857	34344	23043	32377	32736	
3070	0	26738	34676	20555	32461	32967	
3071	0	27000	35357	22008	32615	32790	
3072	0	27752	35207	24809	32751	32931	
3073	0	28595	35639	30338	32641	32997	
3074	0	29492	35644	38505	32573	32733	
3075	0	30394	35647	40334	32614	32850	
3076	0	30448	35262	34945	32766	32919	
3077	0	30117	34352	28670	32775	32753	
3078	0	30032	33645	28514	32889	32951	
3079	0	31618	32752	36955	32690	32923	
3080	0	34955	32067	41631	32586	32766	
3081	0	37864	31410	37712	32815	32944	
3082	0	38315	31092	32359	32959	32801	
3083	0	37161	31077	23052	33060	32880	
3084	0	36070	31301	17740	32973	32815	
3085	0	33077	31616	21834	32991	33000	
3086	0	30864	31986	29543	32815	32688	
3087	0	30224	32189	34597	32729	32829	
3088	0	30516	32040	38300	33028	32775	
3089	0	32903	32143	40677	33140	33042	
3090	0	36416	32194	42111	33093	32897	
3091	0	40816	31832	38352	32891	32788	
3092	0	43578	31520	30007	32866	32893	
3093	0	43676	31338	23867	32691	32697	
3094	0	41646	31693	25870	32829	32921	
3095	0	38681	32347	31703	32912	32729	
3096	0	34626	32839	38331	32658	32861	
3097	0	30786	34404	43719	32640	32882	
3098	0	28492	36231	50009	32760	32824	
3099	0	27042	36859	51934	32827	33095	
3100	0	26600	35847	45741	32839	32967	
3101	0	27052	34061	37059	32868	32922	
3102	0	27589	33424	22736	33083	32980	
3103	0	26123	33100	5659	33074	32642	
3104	0	25405	34134	1796	32968	32824	
3105	0	26404	33944	10935	32775	32884	
3106	0	27142	33267	22043	32807	32806	
3107	0	28464	30694	30760	32917	32980	
3108	0	29033	28068	35610	32929	32665	
3109	0	31992	26994	41304	32875	32860	
3110	0	36045	27413	44418	32648	32720	
3111	0	37688	29271	43354	32809	32671	
3112	0	37341	31032	36743	32650	32957	
3113	0	36323	31951	31883	32691	32706	
3114	0	35416	32579	34713	32683	33011	
3115	0	35170	33223	38621	32656	32890	
3116	0	36985	33260	37535	32647	32761	
3117	0	38300	33029	34375	32719	32758	
3118	0	37032	32636	31995	32671	32591	
3119	0	34953	32118	33142	32579	32839	
3120	0	33408	32487	32720	32615	32851	
3121	0	33235	33460	30524	32917	32590	
3122	0	34460	35361	26766	32805	32838	
3123	0	33753	36435	26695	32813	32652	
3124	0	32185	36886	30677	32729	32983	
3125	0	31400	35641	37209	32608	32898	
3126	0	30382	34027	39489	32790	32855	
3127	0	29718	32008	35224	32771	33020	
3128	0	29319	30334	24966	32878	32756	
3129	0	29444	30649	19412	32737	32871	
3130	0	29426	31545	27216	32879	32996	
3131	0	28940	32357	34998	32718	32774	
3132	0	28159	32561	37675	32557	33017	
3133	0	27602	32767	37419	32339	33047	
3134	0	29874	32639	35927	32485	32746	
3135	0	33660	32495	36033	32570	32809	
3136	0	37612	33182	36477	32759	32909	
3137	0	39730	33455	36541	32813	32639	
3138	0	39586	33331	36743	32963	32791	
3139	0	38536	32947	36999	33160	32835	
3140	0	38779	32847	37186	33122	32834	
3141	0	38013	32567	31777	32955	32706	
3142	0	35936	32413	25708	32750	32707	
3143	0	34285	32414	19834	32722	32825	
3144	0	32560	32493	20243	32281	33035	
3145	0	30671	32121	26729	32205	32971	
3146	0	29606	31751	33583	32400	32727	
3147	0	28754	32057	39623	32775	33055	
3148	0	28336	33045	43756	33063	32858	
3149	0	28214	34680	44997	32869	32906	
3150	0	30077	35552	40635	33095	32623	
3151	0	31821	34963	32637	33312	32921	
3152	0	33364	33504	30290	33190	32831	
3153	0	34621	31059	32031	33362	33053	
3154	0	34866	29925	37182	33336	32930	
3155	0	33380	29526	42537	33013	32740	
3156	0	32226	29428	45316	33197	32985	
3157	0	32506	29579	44538	33121	32745	
3158	0	33267	29755	40752	32918	32935	
3159	0	32432	30724	31330	32640	32763	
3160	0	31008	32186	15378	32472	32560	
3161	0	30884	33424	5728	32164	32828	
3162	0	31397	33871	9908	32195	32851	
3163	0	30958	33723	17026	32249	32645	
3164	0	30295	33511	21511	32274	32863	
3165	0	31128	33519	26040	32514	32797	
3166	0	32733	33199	35879	32545	32745	
3167	0	34502	33638	43655	32317	32989	
3168	0	36154	33873	45206	32250	32755	
3169	0	36392	34077	45087	32473	32851	
3170	0	35486	34043	42006	32879	32967	
3171	0	34692	33838	33524	33202	32703	
