# OpenSignals Text File Format
# {"00:07:80:3B:46:63": {"sensor": ["EMG", "EMG", "EMG", "EMG", "EMG"], "device name": "00:07:80:3B:46:63", "column": ["nSeq", "DI", "CH1", "CH2", "CH3", "CH4", "CH5"], "sync interval": 2, "time": "8:49:46.335", "comments": "", "device connection": "BTH00:07:80:3B:46:63", "channels": [1, 2, 3, 4, 5], "date": "2017-4-28", "mode": 0, "digital IO": [0, 1], "firmware version": 770, "device": "biosignalsplux", "position": 0, "sampling rate": 1000, "label": ["CH1", "CH2", "CH3", "CH4", "CH5"], "resolution": [16, 16, 16, 16, 16], "special": [{}, {}, {}, {}, {}]}}
# EndOfHeader
0	0	32793	32883	32683	33477	33187	
1	0	32785	33159	32729	32655	33200	
2	0	32928	33213	32831	32439	33415	
3	0	32845	33181	32817	32362	33275	
4	0	32864	33851	32721	33015	32759	
5	0	32828	34047	32745	33921	32135	
6	0	32626	33598	32727	33376	31615	
7	0	32583	33202	32690	31657	31574	
8	0	32749	32256	32583	31887	31733	
9	0	32785	31083	32665	31487	32583	
10	0	32775	30583	32739	30547	32975	
11	0	32784	31567	32665	31158	33131	
12	0	32787	32567	32611	32403	33426	
13	0	32768	32903	32689	35395	33037	
14	0	32696	32791	32787	37011	32683	
15	0	32836	32399	32815	35968	33334	
16	0	32739	31551	32813	33991	33466	
17	0	32797	31458	32796	30703	33108	
18	0	32802	32163	32741	28719	32979	
19	0	32758	32799	32667	28957	32997	
20	0	32805	33485	32683	32021	33011	
21	0	32839	33735	32727	32567	32771	
22	0	32784	33958	32758	34543	32659	
23	0	32836	33793	32775	37857	32775	
24	0	32920	33261	32805	37631	32903	
25	0	32938	33127	32774	35379	32923	
26	0	32971	32964	32679	32356	32837	
27	0	32839	32711	32697	28874	32654	
28	0	32775	31977	32695	28267	32935	
29	0	32760	31099	32622	30159	32813	
30	0	32733	31743	32576	31795	32825	
31	0	32720	32083	32644	33661	32720	
32	0	32660	32775	32695	34579	32951	
33	0	32633	33677	32503	33913	33007	
34	0	32678	33735	32599	33376	33114	
35	0	32624	33205	32647	33037	33095	
36	0	32697	32025	32775	32690	33347	
37	0	32832	31791	32775	31979	32653	
38	0	32793	32477	32690	30311	32187	
39	0	32842	32645	32722	31831	32437	
40	0	32752	32590	32749	32683	32711	
41	0	32812	32835	32822	33907	32949	
42	0	32792	32967	32839	35305	32860	
43	0	32749	32937	32743	35590	32805	
44	0	32792	32579	32775	34179	32751	
45	0	32805	32067	32775	32541	32821	
46	0	32827	32487	32889	30437	33078	
47	0	32719	33029	32797	31475	33285	
48	0	32675	33319	32693	34097	33379	
49	0	32797	33575	32579	33927	33703	
50	0	32720	32301	32607	32539	34002	
51	0	32792	31098	32686	31077	33686	
52	0	32818	31239	32757	30994	31437	
53	0	32947	31459	32663	32248	30053	
54	0	32923	31975	32743	33678	30375	
55	0	32797	32503	32820	33715	31693	
56	0	32668	32647	32758	31434	32221	
57	0	32792	33081	32661	31623	32679	
58	0	32768	33517	32717	33088	33247	
59	0	32803	34295	32751	33767	33526	
60	0	32935	34255	32738	32775	33743	
61	0	32881	34071	32767	32411	33546	
62	0	32821	33628	32755	33091	33451	
63	0	32827	32656	32615	33424	33338	
64	0	32816	31739	32563	33595	33363	
65	0	32809	31456	32731	32914	33349	
66	0	32757	31149	32739	32337	32803	
67	0	32742	30959	32831	31431	32199	
68	0	32785	32119	32751	31053	32246	
69	0	32731	32923	32729	32319	33159	
70	0	32685	33391	32747	31999	32967	
71	0	32764	33328	32756	33567	32851	
72	0	32852	32199	32583	35601	33318	
73	0	32795	31739	32549	34806	32381	
74	0	32736	31703	32696	33413	32049	
75	0	32689	31775	32807	31995	32773	
76	0	32720	32087	32815	31375	32941	
77	0	32699	32812	32743	32015	32955	
78	0	32713	33911	32805	33191	32912	
79	0	32646	33849	32813	34790	32793	
80	0	32719	33599	32670	33827	32677	
81	0	32789	33207	32599	32423	32863	
82	0	32884	32623	32764	32805	32839	
83	0	32923	32679	32687	32791	32679	
84	0	32832	32691	32701	32154	32797	
85	0	32694	32643	32771	32755	32813	
86	0	32694	32551	32742	32553	33003	
87	0	32851	32775	32594	32439	32745	
88	0	32915	32799	32687	32871	32727	
89	0	32790	33047	32807	32937	33215	
90	0	32840	33131	32733	32263	33934	
91	0	32768	33427	32717	31985	34598	
92	0	32849	33149	32815	33643	32193	
93	0	32944	32597	32594	34951	29359	
94	0	32863	32159	32530	33895	30927	
95	0	32734	32602	32735	33415	32531	
96	0	32775	33170	32762	32575	33089	
97	0	32792	33139	32812	32359	33211	
98	0	32775	33222	32711	32503	33079	
99	0	32816	32903	32775	30581	32961	
100	0	32763	32609	32751	30801	33057	
101	0	32713	32227	32666	32772	33243	
102	0	32685	31615	32619	32623	33248	
103	0	32750	31549	32583	29970	33267	
104	0	32819	32323	32609	29929	32910	
105	0	32711	32867	32753	30994	32883	
106	0	32631	32895	32765	31661	32955	
107	0	32557	32939	32731	33021	33538	
108	0	32605	33242	32722	33423	33741	
109	0	32724	33173	32747	33815	33446	
110	0	32820	32705	32626	36224	33159	
111	0	32915	32677	32685	36967	32761	
112	0	33019	32722	32761	36687	32419	
113	0	33108	32551	32723	36250	32067	
114	0	32899	31535	32775	33769	32283	
115	0	32903	30769	32871	31392	32691	
116	0	32845	31747	32815	30791	32853	
117	0	32681	32662	32691	32263	32891	
118	0	32646	33207	32690	32946	32903	
119	0	32651	33183	32655	33159	33013	
120	0	32679	32595	32803	32166	33227	
121	0	32796	32646	32685	31853	33538	
122	0	32712	32383	32687	31969	33879	
123	0	32774	32519	32770	31447	33863	
124	0	32843	32578	32761	32519	32859	
125	0	32775	32785	32611	32208	30343	
126	0	32694	33299	32595	30769	31650	
127	0	32792	32839	32775	30505	32301	
128	0	32746	32403	32775	31815	33107	
129	0	32807	32681	32739	32314	33283	
130	0	32873	33829	32671	33383	33403	
131	0	32903	33979	32692	33717	33423	
132	0	32844	32967	32744	33302	33381	
133	0	32832	32583	32824	33270	33331	
134	0	32805	32184	32813	31799	33119	
135	0	32700	31218	32691	30491	32915	
136	0	32601	30387	32596	32447	32711	
137	0	32603	30547	32775	35655	32641	
138	0	32723	30786	32793	35255	32721	
139	0	32833	32164	32759	32949	32967	
140	0	32745	34077	32775	32730	32934	
141	0	32700	34943	32688	34923	33049	
142	0	32677	34699	32655	35701	32967	
143	0	32713	34427	32762	33423	32943	
144	0	32829	33337	32729	31397	32973	
145	0	32795	32289	32727	31101	32961	
146	0	32833	30705	32796	30330	32941	
147	0	32817	30975	32827	30824	32941	
148	0	32752	32437	32799	32053	32966	
149	0	32804	32995	32703	33191	33107	
150	0	32815	32995	32625	36125	33211	
151	0	32759	32621	32637	36227	33335	
152	0	32775	31896	32697	34043	33383	
153	0	32804	31651	32799	33063	32327	
154	0	32850	31614	32799	31411	31751	
155	0	32861	32327	32725	31746	32967	
156	0	32863	33207	32764	31826	33515	
157	0	32882	33533	32775	31930	33503	
158	0	32716	33699	32659	32091	33019	
159	0	32767	33630	32599	32519	31559	
160	0	32775	33703	32645	33527	31747	
161	0	32775	33714	32799	34776	32631	
162	0	32708	33949	32711	33967	33519	
163	0	32784	33499	32673	32914	33607	
164	0	32833	33155	32775	32293	33287	
165	0	32799	32774	32543	32413	33283	
166	0	32705	32219	32583	32629	32850	
167	0	32755	32435	32693	31063	32245	
168	0	32770	32325	32762	30981	31941	
169	0	32740	32217	32802	30773	32481	
170	0	32848	32711	32723	31493	32857	
171	0	32775	32647	32739	33095	32923	
172	0	32731	32641	32754	34015	32865	
173	0	32830	32775	32601	33861	32903	
174	0	32871	33037	32706	33511	33083	
175	0	32690	32707	32812	32007	33268	
176	0	32678	32023	32774	31706	33095	
177	0	32701	31958	32741	32513	33041	
178	0	32670	32181	32809	33754	32999	
179	0	32809	32307	32690	34347	33008	
180	0	32844	33047	32637	34179	32869	
181	0	32912	33410	32817	35425	32871	
182	0	32890	33379	32775	35506	32603	
183	0	32812	33211	32687	34631	32327	
184	0	32743	32506	32727	32863	32589	
185	0	32564	31606	32610	30121	32991	
186	0	32568	31501	32705	30087	33325	
187	0	32654	31941	32639	29949	33496	
188	0	32729	32455	32721	31469	33287	
189	0	32748	32839	32595	31556	31617	
190	0	32808	33362	32689	30613	33313	
191	0	32809	32899	32751	31795	34087	
192	0	32847	33039	32790	33558	33206	
193	0	32852	33329	32659	34011	31601	
194	0	32775	32599	32839	33735	31323	
195	0	32826	32259	32695	33442	32719	
196	0	32838	31655	32775	32711	33455	
197	0	32824	30359	32641	33531	33635	
198	0	32869	30705	32763	33490	31954	
199	0	32880	31661	32693	33711	31283	
200	0	32804	32310	32744	32803	32533	
201	0	32745	32839	32768	32097	33127	
202	0	32714	33965	32662	31574	33219	
203	0	32740	33971	32762	32407	33069	
204	0	32698	34098	32675	34162	33012	
205	0	32713	34045	32801	34687	32985	
206	0	32704	33709	32727	33530	32631	
207	0	32672	32952	32598	33620	32738	
208	0	32868	31917	32695	33943	32881	
209	0	32869	31675	32726	32536	32903	
210	0	32740	31879	32765	31027	32839	
211	0	32736	32461	32732	30445	32642	
212	0	32673	32565	32570	30761	32691	
213	0	32665	32941	32721	28824	33121	
214	0	32741	33393	32765	28406	33147	
215	0	32806	33517	32837	32902	32742	
216	0	32893	33255	32743	35739	32735	
217	0	32906	32581	32623	37176	32992	
218	0	32965	32191	32735	38199	33042	
219	0	32955	32397	32738	37319	32824	
220	0	32774	32697	32875	34039	32952	
221	0	32805	32775	32633	31453	33026	
222	0	32731	32494	32676	29807	32903	
223	0	32789	31594	32722	30249	32525	
224	0	32833	31139	32765	30929	32728	
225	0	33024	32139	32773	30319	32849	
226	0	32939	32940	32631	32483	32830	
227	0	32869	33117	32688	34551	32775	
228	0	32740	33259	32749	34311	32770	
229	0	32623	33376	32747	34323	32442	
230	0	32576	33325	32630	33170	32215	
231	0	32729	32932	32698	32038	32491	
232	0	32742	32729	32747	32143	32909	
233	0	32633	32448	32829	33528	33035	
234	0	32638	32054	32741	33618	33251	
235	0	32707	32241	32651	32631	33507	
236	0	32705	32495	32853	31707	33643	
237	0	32721	33095	32758	32113	33009	
238	0	32794	33396	32801	31569	31711	
239	0	32826	33671	32658	31431	32547	
240	0	32775	33842	32759	32835	33466	
241	0	32635	33697	32727	33274	33687	
242	0	32706	33895	32654	33159	32979	
243	0	32761	33117	32594	32692	31487	
244	0	32800	31431	32815	32706	32391	
245	0	32839	29889	32747	32675	32745	
246	0	32851	30253	32800	32801	32433	
247	0	32842	31627	32695	32811	30983	
248	0	32842	32431	32639	33450	31963	
249	0	32748	32363	32789	33463	32839	
250	0	32876	32195	32731	32946	33815	
251	0	32805	32071	32701	33543	33231	
252	0	32647	32697	32677	33323	33453	
253	0	32614	32903	32567	31537	33507	
254	0	32839	33395	32731	30459	33646	
255	0	32805	33690	32807	31493	33512	
256	0	32816	33551	32766	33039	33627	
257	0	32693	33111	32770	33890	33581	
258	0	32737	33306	32643	36061	32707	
259	0	32875	33490	32813	35809	31595	
260	0	32789	33053	32707	32539	31047	
261	0	32748	32233	32813	30493	32185	
262	0	32775	31695	32591	30817	33000	
263	0	32736	31443	32809	32751	33070	
264	0	32775	31431	32793	33814	32757	
265	0	32775	31634	32807	33911	32327	
266	0	32744	32538	32719	32797	32606	
267	0	32728	33049	32725	31271	33146	
268	0	32797	33637	32839	31359	33251	
269	0	32846	33367	32799	32731	33231	
270	0	32631	33530	32847	34801	33243	
271	0	32752	33367	32669	35431	33159	
272	0	32865	33530	32673	32797	33240	
273	0	33042	34053	32767	31687	33331	
274	0	32851	33473	32733	32730	33268	
275	0	32711	32547	32671	33479	33143	
276	0	32588	32263	32591	31781	32829	
277	0	32706	32391	32498	29463	32775	
278	0	32884	32139	32425	29741	32855	
279	0	32805	31439	32771	30203	32797	
280	0	32789	31193	32727	31209	32852	
281	0	32820	31149	32755	32747	32832	
282	0	32786	30567	32738	34887	32890	
283	0	32820	29903	32849	35911	32757	
284	0	32730	31503	32717	35195	32311	
285	0	32712	32503	32608	34229	32223	
286	0	32749	32976	32656	33879	32611	
287	0	32812	33975	32799	33625	33023	
288	0	32775	34151	32738	33431	33307	
289	0	32896	34068	32793	32767	33459	
290	0	32871	33901	32726	32295	33600	
291	0	32868	33715	32709	32149	33309	
292	0	32839	33535	32591	32519	31687	
293	0	32803	33089	32683	32627	32001	
294	0	32686	32903	32691	32563	32403	
295	0	32688	32829	32711	32287	32590	
296	0	32775	32739	32805	32253	32991	
297	0	32721	32930	32751	32346	33195	
298	0	32708	32535	32837	31977	32979	
299	0	32744	32237	32741	31407	32775	
300	0	32813	32583	32623	32058	32653	
301	0	32775	33021	32665	34076	32674	
302	0	32720	32963	32727	34600	32903	
303	0	32767	32551	32759	33219	32967	
304	0	32786	32621	32767	32442	33166	
305	0	32825	32192	32711	32633	33473	
306	0	32817	32033	32775	32909	33851	
307	0	32775	32175	32823	33021	34041	
308	0	32724	31853	32647	33219	32503	
309	0	32752	31821	32628	33695	31458	
310	0	32862	32464	32555	33379	31633	
311	0	32900	32963	32623	32711	32613	
312	0	32968	33247	32798	32239	33095	
313	0	32869	33157	32757	32281	33287	
314	0	32707	33447	32891	32119	33129	
315	0	32634	33359	32835	31712	33031	
316	0	32715	33442	32643	30425	33042	
317	0	32768	33184	32656	32022	33159	
318	0	32624	33259	32797	32687	33547	
319	0	32672	32967	32757	34242	33767	
320	0	32688	32398	32740	35213	33861	
321	0	32678	32495	32775	34512	34869	
322	0	32840	32509	32848	32496	34247	
323	0	32967	32292	32735	30036	31489	
324	0	32853	32009	32569	30820	29823	
325	0	32704	31883	32683	30975	29063	
326	0	32734	31907	32757	32159	29967	
327	0	32839	31666	32691	34790	32027	
328	0	32825	31856	32729	36642	33179	
329	0	32888	32381	32669	36135	33509	
330	0	32980	33458	32536	33773	33575	
331	0	33037	33895	32743	31943	33411	
332	0	33060	32685	32639	31487	33357	
333	0	33021	32297	32637	32121	33202	
334	0	32927	32709	32660	33095	33404	
335	0	32975	32661	32470	32917	33703	
336	0	32943	32671	32570	31437	33970	
337	0	32718	32131	32775	29215	33927	
338	0	32873	31462	32659	30446	33046	
339	0	33008	31535	32667	32263	31671	
340	0	33002	32164	32741	34816	32263	
341	0	32908	32795	32579	36017	32825	
342	0	32792	33942	32662	34618	32704	
343	0	32948	34280	32685	32650	32219	
344	0	32944	34210	32727	31451	32526	
345	0	32760	33546	32646	31397	32787	
346	0	32873	32550	32617	32775	32899	
347	0	32773	32199	32825	33339	33123	
348	0	32697	31665	32795	32573	33171	
349	0	32501	31494	32899	33219	33071	
350	0	32410	31251	32647	34943	33399	
351	0	32462	31421	32658	33824	33751	
352	0	32443	32055	32851	32535	33647	
353	0	32394	33055	32923	31703	32248	
354	0	32279	33963	32932	31318	30771	
355	0	32419	34221	32989	32486	31849	
356	0	32592	34909	32820	33666	32991	
357	0	32632	34625	32855	34535	33519	
358	0	32575	32807	32941	34523	33527	
359	0	32531	30658	32917	34579	33599	
360	0	32624	30070	32909	33443	33447	
361	0	32660	31097	32973	30527	33430	
362	0	32402	31303	32893	29183	33430	
363	0	32422	31751	32729	31053	33258	
364	0	32584	32337	32681	32291	33105	
365	0	32709	33155	32694	33145	32733	
366	0	32744	33370	32797	33095	32341	
367	0	32775	33781	32741	32679	32193	
368	0	32877	34129	32711	33187	32341	
369	0	33048	33837	32735	31927	32455	
370	0	33063	34124	32707	31623	32665	
371	0	32966	34021	32552	33510	32855	
372	0	32957	33337	32480	34023	32861	
373	0	32973	32002	32599	33249	32903	
374	0	32991	30789	32691	32131	32989	
375	0	32899	30851	32678	32813	32869	
376	0	32824	31385	32775	32959	32823	
377	0	32824	32135	32683	34259	32825	
378	0	32795	33019	32589	33820	32815	
379	0	32839	33327	32747	31827	32877	
380	0	32928	33621	32711	31507	32903	
381	0	32945	33505	32680	33213	33029	
382	0	32740	32952	32741	33555	33011	
383	0	32795	32774	32825	33536	33141	
384	0	32760	32754	32805	31588	33426	
385	0	32753	32979	32685	28547	33285	
386	0	32656	33119	32519	29826	32896	
387	0	32658	32525	32635	33382	32167	
388	0	32813	32157	32746	35967	32229	
389	0	32834	31673	32695	36837	32049	
390	0	32948	32039	32749	35497	32084	
391	0	32952	32561	32736	32677	32573	
392	0	32861	32105	32521	30941	33029	
393	0	32953	32315	32663	30641	33167	
394	0	32870	32601	32731	31363	33423	
395	0	32748	32747	32699	32279	33617	
396	0	32618	33223	32770	33569	33337	
397	0	32648	33927	32709	34055	32873	
398	0	32712	34409	32635	34239	33261	
399	0	32888	33975	32717	33953	33519	
400	0	32815	33119	32775	33129	33031	
401	0	32807	31830	32737	32263	30720	
402	0	32866	31675	32756	31687	30493	
403	0	32825	31751	32540	31451	32223	
404	0	32789	32079	32649	32261	32903	
405	0	32813	32063	32765	32845	33187	
406	0	32832	31783	32762	33622	33255	
407	0	32753	32071	32743	32820	33026	
408	0	32711	32403	32819	31803	33077	
409	0	32680	32929	32703	33020	33209	
410	0	32809	32941	32626	35053	33179	
411	0	32812	33287	32723	35172	33029	
412	0	32886	33189	32791	33730	32967	
413	0	32768	33223	32773	32560	32835	
414	0	32852	33103	32818	32602	33115	
415	0	32911	33602	32775	30938	33234	
416	0	32804	33537	32699	30679	33399	
417	0	32754	33399	32775	31355	33437	
418	0	32868	32658	32775	31815	33336	
419	0	32839	32149	32787	32531	32710	
420	0	32556	31839	32829	33537	32063	
421	0	32555	31663	32736	33287	32061	
422	0	32666	31181	32527	32259	32229	
423	0	32742	31821	32650	33133	32428	
424	0	32832	32429	32685	33173	32757	
425	0	32813	33095	32711	31641	33191	
426	0	32812	32839	32631	30769	33046	
427	0	32706	32743	32541	29757	32023	
428	0	32658	31746	32727	32507	32656	
429	0	32717	31026	32749	34971	33313	
430	0	32728	31680	32711	33671	33443	
431	0	32825	32691	32772	32525	33383	
432	0	32763	33101	32691	31705	33462	
433	0	32740	33424	32647	32681	33395	
434	0	32825	33339	32767	35931	32455	
435	0	32792	33575	32690	37549	32263	
436	0	32704	33488	32823	37283	33069	
437	0	32731	33683	32693	34173	33242	
438	0	32656	33671	32717	30477	32863	
439	0	32690	34026	32821	31473	32919	
440	0	32803	33751	32822	30718	33227	
441	0	32726	33755	32815	31687	33467	
442	0	32869	32743	32653	32741	33466	
443	0	33024	30894	32573	32605	32796	
444	0	33164	30030	32751	32397	30487	
445	0	33025	30302	32749	31751	30585	
446	0	32772	30930	32659	32775	32031	
447	0	32676	31787	32641	33151	32885	
448	0	32723	32423	32761	32799	32701	
449	0	32821	32887	32741	32065	33391	
450	0	32861	33087	32795	31067	33794	
451	0	32932	33053	32741	32021	33593	
452	0	32805	33551	32681	31936	33362	
453	0	32774	34043	32775	31961	33167	
454	0	32693	33767	32762	33788	33060	
455	0	32653	32967	32709	34770	32939	
456	0	32679	32327	32624	34533	32525	
457	0	32602	31345	32833	34038	32753	
458	0	32600	31604	32735	33073	32941	
459	0	32735	32491	32805	32198	32947	
460	0	32775	32909	32753	32615	33045	
461	0	32751	33257	32579	33107	32898	
462	0	32725	33477	32627	33247	32950	
463	0	32786	33581	32591	32431	32871	
464	0	32824	33569	32811	30633	32754	
465	0	32809	33315	32741	30966	32893	
466	0	32867	33330	32727	31793	32977	
467	0	32800	33403	32757	32007	32985	
468	0	32741	32395	32723	32627	32967	
469	0	32906	30443	32556	33466	32898	
470	0	32906	29842	32519	34595	32885	
471	0	32728	31229	32647	35163	32831	
472	0	32753	32079	32775	34203	32997	
473	0	32823	32433	32775	35151	33177	
474	0	32833	32918	32685	33474	33541	
475	0	32711	33475	32735	31591	33343	
476	0	32812	33699	32805	30910	33057	
477	0	32923	33814	32817	31597	32999	
478	0	32876	33535	32775	32509	32847	
479	0	32827	33559	32647	32528	32637	
480	0	32888	33059	32643	32029	32501	
481	0	32774	32303	32559	31677	32747	
482	0	32656	32075	32560	32289	32823	
483	0	32678	32187	32611	32619	32802	
484	0	32732	32359	32669	33339	32355	
485	0	32536	32676	32803	33671	32325	
486	0	32480	32711	32767	33979	32583	
487	0	32625	32863	32787	34030	32731	
488	0	32793	32583	32775	32545	32627	
489	0	32868	32433	32775	32100	32485	
490	0	32863	32670	32775	32935	32775	
491	0	32857	32826	32755	33329	32887	
492	0	32844	32706	32797	31967	32965	
493	0	32827	32999	32829	30991	33318	
494	0	32860	33143	32812	32801	33475	
495	0	32809	32955	32719	34479	33399	
496	0	32793	32929	32635	32999	33183	
497	0	32853	32775	32588	32105	33123	
498	0	32890	32863	32647	32403	33109	
499	0	32880	32711	32725	32605	32575	
500	0	32882	32403	32789	32669	31413	
501	0	32797	32627	32775	32135	32391	
502	0	32852	32759	32703	32675	33183	
503	0	32768	32637	32655	33019	33159	
504	0	32836	32929	32743	32583	33001	
505	0	32775	32937	32775	31827	33151	
506	0	32711	32613	32767	33623	33363	
507	0	32709	32474	32729	35135	33535	
508	0	32750	32600	32611	34755	33383	
509	0	32696	32775	32555	34043	32287	
510	0	32638	32911	32628	32071	31248	
511	0	32627	32831	32775	30167	32240	
512	0	32770	32549	32775	30210	32883	
513	0	32799	32306	32774	31207	33007	
514	0	32775	31843	32717	31671	33179	
515	0	32789	31773	32851	32917	33045	
516	0	32747	31990	32799	34733	33105	
517	0	32860	32017	32679	36002	32922	
518	0	32785	31570	32597	33781	33105	
519	0	32767	31593	32589	31632	33083	
520	0	32850	32775	32589	29757	32679	
521	0	32867	33650	32662	30258	32967	
522	0	32804	33547	32775	31649	33124	
523	0	32794	32695	32785	34215	33065	
524	0	32805	32711	32699	34117	32913	
525	0	32802	32775	32669	34419	32759	
526	0	32795	32543	32681	33894	32711	
527	0	32755	32359	32701	33371	32767	
528	0	32758	32825	32715	33039	32807	
529	0	32664	32994	32827	32135	33019	
530	0	32648	32495	32791	31581	32795	
531	0	32711	32155	32631	32543	32983	
532	0	32730	31642	32623	33799	33202	
533	0	32765	31861	32595	34203	33183	
534	0	32820	32986	32675	34847	33125	
535	0	32869	33763	32819	33743	32966	
536	0	32733	33605	32727	32273	32471	
537	0	32775	32987	32757	31478	32155	
538	0	32792	32055	32765	31855	32039	
539	0	32892	31815	32743	31751	32351	
540	0	32764	31999	32756	32959	32775	
541	0	32742	32615	32815	34050	32910	
542	0	32673	33021	32793	33639	32890	
543	0	32616	33477	32755	33223	33031	
544	0	32815	33686	32786	31796	33163	
545	0	32899	33526	32739	30005	33011	
546	0	32843	33490	32813	31074	33043	
547	0	32717	32919	32749	31909	32927	
548	0	32744	32363	32817	31751	32542	
549	0	32800	31879	32879	32103	32252	
550	0	32761	31347	32820	32647	32421	
551	0	32742	31647	32803	33011	32630	
552	0	32707	32130	32743	32677	32711	
553	0	32763	32226	32754	32623	32775	
554	0	32805	32575	32669	32896	33129	
555	0	32728	32839	32630	34053	33261	
556	0	32713	32775	32607	35039	32983	
557	0	32713	32695	32615	35202	33159	
558	0	32812	32355	32607	34693	33260	
559	0	32771	32377	32609	33339	32947	
560	0	32698	32883	32604	32429	32861	
561	0	32775	33029	32640	31387	32835	
562	0	32874	33438	32757	30458	32453	
563	0	32744	33247	32775	31160	32755	
564	0	32813	32953	32803	32315	33151	
565	0	32824	32793	32757	35251	32989	
566	0	32796	32775	32775	36267	32479	
567	0	32750	32521	32815	34355	32729	
568	0	32800	33119	32731	32864	32643	
569	0	32610	33549	32619	31503	32628	
570	0	32630	33535	32583	31789	32506	
571	0	32859	33934	32677	32626	32623	
572	0	32775	33577	32703	32975	32747	
573	0	32706	32603	32791	34059	32875	
574	0	32740	31257	32767	33863	33227	
575	0	32754	31359	32775	33170	33143	
576	0	32746	32243	32775	34311	32839	
577	0	32850	32898	32758	32580	33014	
578	0	32880	32545	32691	30662	33543	
579	0	32903	32055	32698	30715	33587	
580	0	32852	31135	32786	30701	32090	
581	0	32848	31739	32757	30881	31748	
582	0	32771	32947	32730	31229	32967	
583	0	32749	33207	32616	31623	33179	
584	0	32742	33507	32730	31551	33123	
585	0	32771	33347	32719	31063	33202	
586	0	32717	32723	32662	31157	33402	
587	0	32693	31777	32632	32455	33283	
588	0	32681	31193	32641	34521	32871	
589	0	32624	31175	32690	36801	32228	
590	0	32702	32239	32757	38023	32069	
591	0	32899	33397	32734	37663	32775	
592	0	32853	34305	32717	35887	33095	
593	0	32890	34405	32755	33423	33019	
594	0	32898	34171	32768	31066	33170	
595	0	32861	33313	32675	28482	33595	
596	0	32785	32207	32606	27955	33458	
597	0	32744	30913	32636	29955	32935	
598	0	32688	30387	32638	31929	31725	
599	0	32640	31130	32831	33253	30981	
600	0	32665	32147	32809	33373	32029	
601	0	32690	32959	32738	34183	32819	
602	0	32805	33279	32752	34013	33049	
603	0	32792	33223	32667	32955	33106	
604	0	32839	33399	32601	33350	33165	
605	0	32882	33670	32687	34082	33207	
606	0	32922	34051	32795	34070	33091	
607	0	32858	33767	32765	31903	32918	
608	0	32821	33497	32775	31343	32883	
609	0	32863	32867	32711	31295	33110	
610	0	32841	31903	32583	31565	33675	
611	0	32775	30671	32795	33183	33617	
612	0	32703	29886	32787	34449	33296	
613	0	32818	30955	32747	35001	32987	
614	0	32738	32455	32793	33039	32887	
615	0	32680	33519	32647	30954	32651	
616	0	32758	34693	32647	30709	31728	
617	0	32708	35045	32775	32039	31252	
618	0	32839	35351	32741	33762	31281	
619	0	32964	34087	32761	33711	32611	
620	0	32908	32063	32817	33660	33050	
621	0	32916	29919	32653	34145	33019	
622	0	32916	29165	32618	32637	33030	
623	0	32855	30479	32592	31103	33043	
624	0	32738	31648	32655	31091	33101	
625	0	32733	32697	32767	31535	33323	
626	0	32681	33179	32743	32495	33205	
627	0	32706	33327	32643	33639	33186	
628	0	32740	32981	32696	34362	32999	
629	0	32714	32807	32686	33467	32967	
630	0	32688	32967	32740	33043	33181	
631	0	32735	33373	32727	33367	32907	
632	0	32791	33685	32775	33845	32881	
633	0	32775	34098	32729	34086	33063	
634	0	32797	34069	32645	32527	33093	
635	0	32768	33973	32604	31453	33503	
636	0	32788	33145	32647	30075	33528	
637	0	32807	32165	32630	29865	32911	
638	0	32789	32188	32641	31921	31265	
639	0	32756	31962	32740	33765	31885	
640	0	32786	31531	32713	34999	32469	
641	0	32711	31269	32767	34754	32755	
642	0	32848	31751	32745	35463	32755	
643	0	32853	32229	32741	35173	32692	
644	0	32952	32987	32737	33703	32975	
645	0	32943	33362	32764	32263	33285	
646	0	32813	33201	32773	31915	33013	
647	0	32870	33181	32791	31493	33191	
648	0	32801	33051	32791	30727	32959	
649	0	32851	32718	32909	32239	33123	
650	0	32759	32193	32827	33789	32757	
651	0	32630	31875	32771	33965	32511	
652	0	32753	31910	32743	32805	32501	
653	0	32672	32247	32659	32435	32812	
654	0	32653	32731	32595	32983	32823	
655	0	32553	33356	32679	32583	32491	
656	0	32656	33935	32659	32113	32801	
657	0	32742	34330	32691	30823	32907	
658	0	32752	34362	32759	31424	32833	
659	0	32722	34541	32831	32105	33127	
660	0	32787	33075	32829	31942	33111	
661	0	32775	30701	32751	30586	32917	
662	0	32862	29479	32689	31061	32719	
663	0	32965	30249	32615	32971	32965	
664	0	32944	31643	32693	35481	33151	
665	0	32839	32439	32805	36845	33140	
666	0	32805	32817	32797	36571	32831	
667	0	32809	33287	32667	33809	32906	
668	0	32822	32845	32704	31747	33095	
669	0	32787	32555	32827	31581	32909	
670	0	32768	32491	32755	32596	32611	
671	0	32722	32537	32739	31871	32309	
672	0	32736	32186	32753	31045	32421	
673	0	32726	32093	32738	31807	33249	
674	0	32658	32259	32743	32655	33116	
675	0	32753	32629	32727	32263	32753	
676	0	32669	32957	32653	32327	32911	
677	0	32658	33119	32614	32707	33157	
678	0	32630	33280	32643	32951	32687	
679	0	32724	33681	32665	33261	32445	
680	0	32816	33691	32671	32967	32775	
681	0	32853	33601	32698	32601	32564	
682	0	32809	33023	32661	32082	32507	
683	0	32805	32379	32685	32539	32643	
684	0	32853	32319	32560	32920	32729	
685	0	32820	32275	32559	32815	32835	
686	0	32802	32487	32609	33665	33202	
687	0	32841	32535	32641	34018	33175	
688	0	32894	32727	32583	35030	32957	
689	0	32884	32947	32581	34344	33179	
690	0	32831	32991	32617	32839	32945	
691	0	32753	32871	32602	32281	33040	
692	0	32791	32795	32647	31579	33123	
693	0	32775	32809	32689	32141	32877	
694	0	32666	32721	32824	32683	33095	
695	0	32705	32571	32805	31330	32920	
696	0	32707	32749	32767	30595	33434	
697	0	32821	33202	32755	30875	33764	
698	0	32879	33043	32770	31211	33951	
699	0	32789	32944	32756	31989	31969	
700	0	32728	32571	32729	34667	32150	
701	0	32818	32692	32703	37181	32410	
702	0	32801	32775	32775	37221	31063	
703	0	32821	32435	32787	36346	31474	
704	0	32768	32577	32739	33437	31937	
705	0	32770	32492	32673	29793	32773	
706	0	32819	32119	32623	29026	33311	
707	0	32713	31856	32571	30435	33063	
708	0	32773	31815	32601	31065	32871	
709	0	32801	32307	32589	31779	33137	
710	0	32797	32853	32592	33079	33188	
711	0	32774	33205	32591	33751	33264	
712	0	32838	33781	32608	33749	33127	
713	0	32822	33699	32689	33863	32907	
714	0	32753	33535	32701	33269	33155	
715	0	32690	33363	32736	32927	32999	
716	0	32685	32931	32759	33123	32751	
717	0	32677	32617	32789	32551	32935	
718	0	32618	31341	32762	30989	33025	
719	0	32688	30263	32749	29951	32874	
720	0	32800	29858	32707	30689	32960	
721	0	32711	30515	32787	31633	33047	
722	0	32853	31053	32879	34166	33017	
723	0	32944	31655	32851	36157	32767	
724	0	32998	31815	32687	35527	32703	
725	0	32991	32857	32568	33933	32941	
726	0	32839	33139	32546	33415	32973	
727	0	32708	33443	32646	32589	32865	
728	0	32624	33515	32775	31887	32679	
729	0	32640	33559	32813	32659	32927	
730	0	32933	33783	32815	32442	32989	
731	0	32827	33922	32775	31939	32743	
732	0	32804	33799	32739	33218	32985	
733	0	32752	33709	32749	32455	32759	
734	0	32682	33191	32703	32241	32851	
735	0	32704	32911	32775	33386	33047	
736	0	32694	32707	32809	34103	32775	
737	0	32667	32442	32647	33303	32647	
738	0	32726	32037	32654	32345	32595	
739	0	32870	31725	32761	32071	32741	
740	0	32827	31785	32809	31213	32745	
741	0	32789	32071	32698	30995	32466	
742	0	32786	32813	32717	31447	32589	
743	0	32868	33393	32709	32231	32703	
744	0	32805	33431	32795	33382	32813	
745	0	32744	33847	32787	33599	33187	
746	0	32735	33619	32698	33147	32943	
747	0	32774	33415	32657	33696	33001	
748	0	32772	33101	32704	35314	32827	
749	0	32833	33103	32765	35653	32664	
750	0	32742	33647	32770	34203	32659	
751	0	32754	32216	32711	32242	32850	
752	0	32824	29691	32713	31631	33005	
753	0	32902	29173	32623	31437	33127	
754	0	32886	30279	32835	31319	33181	
755	0	32824	31719	32745	31669	32899	
756	0	32821	33351	32629	32138	32641	
757	0	32813	34055	32706	33397	32263	
758	0	32676	33922	32775	33567	32257	
759	0	32634	33971	32736	32667	32643	
760	0	32642	33779	32699	32109	32935	
761	0	32736	33665	32745	32077	32915	
762	0	32757	33546	32739	32082	32902	
763	0	32726	32915	32812	31761	33019	
764	0	32765	32213	32775	30929	33433	
765	0	32797	31801	32749	32489	31863	
766	0	32870	31821	32524	36626	31444	
767	0	33012	32263	32730	37747	32709	
768	0	32916	32533	32797	34400	33506	
769	0	32753	33199	32679	31907	33413	
770	0	32632	33303	32799	31593	33287	
771	0	32716	32667	32775	32685	33121	
772	0	32680	32471	32597	33079	33108	
773	0	32722	32160	32717	30348	33133	
774	0	32766	31523	32859	29339	32943	
775	0	32797	31787	32727	29826	32820	
776	0	32716	32361	32845	31767	32754	
777	0	32775	33127	32809	33901	32931	
778	0	32767	33739	32679	35079	33069	
779	0	32790	33947	32647	35347	33085	
780	0	32745	33839	32656	33895	33101	
781	0	32598	33529	32730	33405	32903	
782	0	32672	32719	32717	32923	32735	
783	0	32816	31635	32717	32455	32694	
784	0	32824	31487	32647	32260	32635	
785	0	32801	31519	32765	32319	32764	
786	0	32744	31505	32711	31667	33083	
787	0	32794	32256	32609	32234	33277	
788	0	32910	32521	32601	34859	33031	
789	0	32829	32417	32690	36283	32611	
790	0	32660	32525	32807	33273	32692	
791	0	32812	33287	32743	30003	32377	
792	0	32838	33797	32739	30019	31914	
793	0	32884	33442	32787	31777	32255	
794	0	32848	33533	32668	33230	32667	
795	0	32816	33890	32692	34377	32902	
796	0	32827	33205	32818	33269	32933	
797	0	32775	32413	32775	32363	33107	
798	0	32688	31951	32709	32297	33211	
799	0	32756	31751	32775	32725	33091	
800	0	32697	31841	32809	32755	32921	
801	0	32543	31875	32723	32573	32885	
802	0	32745	32763	32605	32141	32959	
803	0	32832	33241	32641	32029	32832	
804	0	32803	33515	32696	33475	32703	
805	0	32791	33575	32723	33714	32813	
806	0	32825	33395	32735	33962	33007	
807	0	32800	32583	32698	33965	32944	
808	0	32925	31866	32775	33503	32871	
809	0	32888	31461	32866	33111	32975	
810	0	32749	31037	32775	31751	33189	
811	0	32696	30855	32675	30807	33115	
812	0	32890	30713	32593	32217	33015	
813	0	32884	30993	32680	31939	32967	
814	0	32825	32169	32825	31853	33024	
815	0	32835	33127	32757	32081	32711	
816	0	32751	33467	32792	32506	32611	
817	0	32711	33557	32699	33105	32667	
818	0	32698	33243	32725	33755	32343	
819	0	32728	33257	32793	33821	32487	
820	0	32770	33507	32756	34171	32623	
821	0	32856	34103	32669	33530	33095	
822	0	32737	34209	32585	31547	32857	
823	0	32640	33795	32543	30791	32061	
824	0	32753	33103	32677	32557	31719	
825	0	32722	32135	32626	34309	32371	
826	0	32732	31795	32721	35087	32861	
827	0	32757	31799	32751	34847	33223	
828	0	32878	32151	32767	32391	33296	
829	0	32930	32762	32751	30855	33481	
830	0	33048	33189	32707	31577	33437	
831	0	32967	33619	32717	32095	33585	
832	0	32775	33703	32679	32359	33415	
833	0	32606	33391	32765	32775	31747	
834	0	32789	32893	32773	33181	31647	
835	0	32899	32386	32839	34785	32513	
836	0	32749	32634	32807	35434	33049	
837	0	32797	33376	32768	34036	33327	
838	0	32832	33043	32723	32739	33138	
839	0	32747	31569	32658	32325	33090	
840	0	32775	30621	32507	32134	33317	
841	0	32851	30487	32559	32095	33172	
842	0	32907	31627	32626	32688	32915	
843	0	32697	32599	32719	32155	32851	
844	0	32706	33142	32735	31119	32873	
845	0	32802	33573	32720	31206	32594	
846	0	32595	33655	32720	32646	32533	
847	0	32570	33699	32857	32769	32756	
848	0	32681	33837	32774	31399	32931	
849	0	32786	33541	32717	30899	33083	
850	0	32774	33027	32663	31138	33112	
851	0	32796	32049	32642	35031	32787	
852	0	32829	31316	32607	37398	32732	
853	0	32816	31528	32667	35553	32720	
854	0	32815	31847	32647	33393	32435	
855	0	32825	32027	32647	32189	32513	
856	0	32870	31699	32548	33079	32728	
857	0	32877	32173	32637	33930	32705	
858	0	32850	32277	32703	32804	32921	
859	0	32848	32351	32701	31825	32683	
860	0	32741	32827	32775	31597	32988	
861	0	32834	33653	32784	31653	33165	
862	0	32856	34151	32757	31898	32923	
863	0	32740	34071	32771	33269	33003	
864	0	32533	33856	32818	33514	32955	
865	0	32652	33913	32815	33571	32857	
866	0	32807	33379	32823	33466	32757	
867	0	32816	32455	32791	32450	32805	
868	0	32775	31751	32837	30869	32482	
869	0	32797	31119	32855	28917	33015	
870	0	32741	31175	32738	29965	32883	
871	0	32790	31623	32719	33509	33047	
872	0	32856	32293	32725	34710	33127	
873	0	32750	32427	32726	34419	32759	
874	0	32754	32447	32846	33618	33035	
875	0	32709	32623	32875	32741	32495	
876	0	32699	32898	32795	32391	32711	
877	0	32773	33008	32725	32854	32923	
878	0	32749	33335	32711	33663	32959	
879	0	32685	33490	32623	32727	33091	
880	0	32621	33704	32684	32771	33031	
881	0	32656	33990	32630	33419	32751	
882	0	32690	32997	32599	33080	32789	
883	0	32732	31624	32598	33407	32807	
884	0	32835	31501	32607	34955	32481	
885	0	32834	32067	32711	35117	32505	
886	0	32744	32263	32763	34483	32311	
887	0	32747	31777	32774	32881	32685	
888	0	32815	31963	32775	31498	32646	
889	0	32713	32775	32723	30215	33167	
890	0	32775	32722	32694	29639	33150	
891	0	32730	33103	32741	30836	32851	
892	0	32764	33343	32775	30427	33242	
893	0	32907	33204	32791	31597	33089	
894	0	32934	33665	32691	32581	32775	
895	0	32853	33159	32704	33755	32805	
896	0	32805	32873	32713	35799	33075	
897	0	32853	33377	32711	37307	33249	
898	0	32832	33415	32749	35543	33415	
899	0	32775	32799	32719	33131	33351	
900	0	32692	32114	32741	32117	32228	
901	0	32801	31442	32763	31065	31229	
902	0	32798	30767	32769	30855	32158	
903	0	32801	31147	32775	30983	32875	
904	0	32738	32031	32727	31664	32997	
905	0	32832	32640	32607	31773	33084	
906	0	32826	32871	32538	30957	33139	
907	0	32851	32967	32655	32137	33091	
908	0	32728	33426	32731	34019	32999	
909	0	32805	34422	32739	34951	32868	
910	0	32792	34853	32711	33511	32903	
911	0	32736	34659	32690	32987	33282	
912	0	32820	33799	32739	33323	33223	
913	0	32890	32009	32803	33234	32935	
914	0	32805	29943	32775	32634	32909	
915	0	32770	29415	32803	32102	32726	
916	0	32775	30525	32875	32199	32599	
917	0	32612	31527	32769	33121	32436	
918	0	32572	31764	32761	32987	32651	
919	0	32506	32247	32594	33239	32667	
920	0	32604	33571	32657	33181	32863	
921	0	32805	34303	32654	31867	33089	
922	0	32907	33567	32667	33422	32928	
923	0	32968	32335	32755	34783	32775	
924	0	33080	32135	32775	34171	32960	
925	0	33036	31695	32786	32156	32937	
926	0	32969	31425	32769	31543	32803	
927	0	32855	32667	32731	32550	32914	
928	0	32765	33907	32729	33314	32834	
929	0	32648	33981	32757	33375	32923	
930	0	32632	33815	32751	33881	32843	
931	0	32803	33456	32807	34012	32693	
932	0	32871	32926	32739	33339	32953	
933	0	32825	32903	32807	32674	32697	
934	0	32822	33272	32771	31045	33007	
935	0	32750	33381	32807	30017	32935	
936	0	32693	32929	32765	29979	33265	
937	0	32633	32327	32763	30847	33283	
938	0	32698	32690	32763	32589	32999	
939	0	32774	33382	32812	33859	32999	
940	0	32772	34247	32813	35239	33197	
941	0	32765	34387	32791	35571	32671	
942	0	32758	33424	32756	34363	32166	
943	0	32801	31751	32791	32479	32176	
944	0	32976	30633	32718	31425	32278	
945	0	33059	29912	32567	31180	32503	
946	0	32868	30635	32571	32263	32899	
947	0	32765	31717	32647	33767	33193	
948	0	32612	32183	32797	34189	33371	
949	0	32512	32591	32711	35009	32967	
950	0	32401	33351	32743	34301	32443	
951	0	32408	33899	32687	32142	32775	
952	0	32696	33971	32803	31527	33103	
953	0	32839	33554	32845	32098	32950	
954	0	32888	32371	32722	32557	32403	
955	0	32918	31482	32647	33616	32077	
956	0	32839	31110	32765	33550	32443	
957	0	32936	31203	32857	31935	32995	
958	0	32995	31481	32723	30827	33201	
959	0	32954	31979	32545	30418	33237	
960	0	33049	32671	32557	32646	33439	
961	0	32929	33410	32553	34597	33154	
962	0	32842	33413	32671	34287	33111	
963	0	32925	33411	32583	33787	32914	
964	0	32841	33719	32729	32154	32697	
965	0	32845	34085	32699	30859	32775	
966	0	32992	34496	32702	30527	32879	
967	0	32896	34368	32731	30877	32813	
968	0	32895	33870	32741	32263	32953	
969	0	32893	33001	32687	35143	32941	
970	0	32962	31643	32621	35765	32952	
971	0	33024	30995	32655	35447	32953	
972	0	33062	30612	32691	33252	32741	
973	0	33029	31143	32707	31692	32809	
974	0	32961	32231	32711	31733	32809	
975	0	32880	32711	32743	32255	32756	
976	0	32728	32500	32719	33171	32711	
977	0	32859	32807	32759	34003	32867	
978	0	32868	33415	32736	32564	33202	
979	0	32775	33037	32655	32327	33282	
980	0	32608	31979	32647	33037	33174	
981	0	32421	31835	32626	33119	33241	
982	0	32439	32289	32503	32931	31744	
983	0	32402	33373	32661	32969	31458	
984	0	32356	34559	32899	33375	32447	
985	0	32341	35453	32924	32655	32755	
986	0	32289	36148	33043	31591	32770	
987	0	32239	35707	32992	30571	32915	
988	0	32432	33497	32972	29219	33189	
989	0	32662	30838	32873	31248	33083	
990	0	32832	28903	32829	35431	32891	
991	0	32743	28731	32952	32561	32987	
992	0	32551	30001	32954	31683	33095	
993	0	32503	31391	32926	31863	32839	
994	0	32317	31927	32923	32280	32989	
995	0	32304	32722	32786	33178	33095	
996	0	32374	33247	32663	34513	32902	
997	0	32701	33195	32663	37129	33010	
998	0	32898	33727	32696	39367	32851	
999	0	33048	34686	32710	36279	32789	
1000	0	33032	35847	32686	32877	32687	
1001	0	32842	36590	32608	29826	32809	
1002	0	32530	35738	32690	27641	32589	
1003	0	32704	34439	32647	27463	32317	
1004	0	33080	31453	32647	28474	32837	
1005	0	33232	27965	32775	31267	32903	
1006	0	33008	28480	32685	35536	33026	
1007	0	32960	30269	32704	39026	32891	
1008	0	33052	32760	32677	35576	33063	
1009	0	32921	33528	32718	32131	33222	
1010	0	32845	31830	32631	29771	32891	
1011	0	33046	30157	32595	28219	33209	
1012	0	33052	30863	32699	28865	33145	
1013	0	32985	32677	32717	33652	32607	
1014	0	33050	32871	32687	37183	32131	
1015	0	32917	33030	32701	37219	32309	
1016	0	32731	33279	32642	34103	32525	
1017	0	32690	34183	32621	31173	32487	
1018	0	32720	35826	32573	30425	32680	
1019	0	32325	35453	32469	31726	33235	
1020	0	32358	33773	32367	32703	33490	
1021	0	32717	32455	32535	32989	33447	
1022	0	33092	32301	32591	35709	33273	
1023	0	32912	32651	32598	37751	33215	
1024	0	32473	31856	32583	33859	32731	
1025	0	32425	31731	32797	29539	32729	
1026	0	32685	31873	32807	26555	31965	
1027	0	32464	33541	32816	31990	31748	
1028	0	32263	35093	32913	37190	31871	
1029	0	32336	35666	33095	38535	32301	
1030	0	32664	33065	33123	30964	32644	
1031	0	32762	30082	33223	27583	33190	
1032	0	32964	28995	33387	27002	33252	
1033	0	32985	28443	33059	27441	33464	
1034	0	32989	27806	31859	28371	33482	
1035	0	32718	27261	31231	30947	33695	
1036	0	32724	28517	31599	35309	33467	
1037	0	32876	30338	32382	38639	32729	
1038	0	32768	31967	32627	36733	32381	
1039	0	33158	33143	32741	35881	32169	
1040	0	33620	33895	32729	35169	32327	
1041	0	33707	34049	32509	33922	32496	
1042	0	33443	33043	32487	36137	32955	
1043	0	33013	32737	32946	35181	33159	
1044	0	32723	32753	33366	33915	33233	
1045	0	32632	34066	33330	31683	33004	
1046	0	32704	35768	33084	30847	32603	
1047	0	32736	37209	33031	32043	32627	
1048	0	32909	38424	33239	32633	32881	
1049	0	32961	37199	33009	33371	33174	
1050	0	33081	34215	32691	33355	33187	
1051	0	33108	32481	32351	32615	33791	
1052	0	32998	32647	32059	32381	33479	
1053	0	32902	32532	31275	31985	32963	
1054	0	32571	31879	31094	32775	32839	
1055	0	32475	30855	31943	32215	32891	
1056	0	32537	30267	32583	30011	32582	
1057	0	32496	31005	32960	31337	31293	
1058	0	32424	32009	33119	33853	31379	
1059	0	32445	33205	33094	36462	32455	
1060	0	32351	33907	33221	37091	33051	
1061	0	32293	34627	33337	33861	33645	
1062	0	32263	35265	33649	31491	33442	
1063	0	32475	34749	33679	31291	32725	
1064	0	32616	33755	33735	30479	32903	
1065	0	32726	32553	33675	30437	33099	
1066	0	32933	30361	33677	32287	33111	
1067	0	33083	29834	32943	32882	31874	
1068	0	33157	30598	31407	33575	30087	
1069	0	33362	30777	30875	33080	32381	
1070	0	33549	30434	31862	34755	33437	
1071	0	33548	31175	32729	32626	33233	
1072	0	33223	32455	32560	30674	33573	
1073	0	33056	34209	32263	28480	34143	
1074	0	32677	36247	32524	28963	33494	
1075	0	32653	37433	32987	31215	32231	
1076	0	32571	37680	33151	35648	32166	
1077	0	32584	36231	33120	36551	32797	
1078	0	32292	33046	33071	34123	33149	
1079	0	32358	30190	32967	31959	33211	
1080	0	32260	29500	33037	30478	33200	
1081	0	32316	29248	33045	29169	33337	
1082	0	32544	30642	32955	28490	32853	
1083	0	32538	32711	32941	29779	32807	
1084	0	32404	34196	32859	33351	32862	
1085	0	32464	34372	32800	38437	32745	
1086	0	32722	33171	32580	42758	32762	
1087	0	32745	32487	32377	43135	32617	
1088	0	32972	32492	32671	39517	32646	
1089	0	32966	32860	32464	31901	32459	
1090	0	32944	32998	32671	26555	32642	
1091	0	33104	31170	33211	26955	32890	
1092	0	32933	29775	33603	28438	33159	
1093	0	32987	29900	33855	30965	33046	
1094	0	32774	29715	33849	31699	32795	
1095	0	32355	29931	33567	29443	33087	
1096	0	32224	30338	32871	30103	32823	
1097	0	31974	31453	31903	31751	33013	
1098	0	32080	32007	31311	31943	32879	
1099	0	32372	31731	31093	31731	32711	
1100	0	32992	32727	31043	30739	32898	
1101	0	33385	33934	31346	32297	32923	
1102	0	33282	34786	32922	35130	33039	
1103	0	33134	36435	33456	39559	32981	
1104	0	32952	37615	33467	38006	32953	
1105	0	32866	36903	33415	35369	33040	
1106	0	32719	34255	33248	33846	33075	
1107	0	32792	31509	33261	26642	33227	
1108	0	32918	30471	33458	26015	33223	
1109	0	33220	30093	32967	30576	32893	
1110	0	33330	29951	32511	34273	32504	
1111	0	33387	32127	31186	33376	32123	
1112	0	33320	33491	29302	32246	32019	
1113	0	33152	33851	30006	31879	32334	
1114	0	33017	34287	32421	34951	32711	
1115	0	32864	32558	33855	35023	32875	
1116	0	32768	30949	34023	35483	32850	
1117	0	32450	29791	33446	35557	32815	
1118	0	32322	29237	33110	35535	32755	
1119	0	31990	30013	33368	35603	32749	
1120	0	31659	30999	33407	35265	32609	
1121	0	31773	33099	32790	35879	32492	
1122	0	32092	35265	31925	34330	32159	
1123	0	32656	35951	32069	31173	32528	
1124	0	33371	35687	32519	30038	33099	
1125	0	33735	34898	32579	30197	33629	
1126	0	33784	34463	33007	30643	33541	
1127	0	33346	34759	33271	30727	33135	
1128	0	33047	35373	33265	32425	32903	
1129	0	32918	36229	33111	31915	32768	
1130	0	32654	36178	33007	30839	32877	
1131	0	32758	34482	32895	31141	32683	
1132	0	32884	32567	32933	28941	33001	
1133	0	33026	30413	33099	25231	32925	
1134	0	33192	27082	32955	21193	32882	
1135	0	33358	25807	32787	18649	32775	
1136	0	33184	26720	32823	26028	32896	
1137	0	32901	28491	32977	36540	32890	
1138	0	32765	30772	32960	47461	32576	
1139	0	32712	31968	32811	53287	32624	
1140	0	32678	33385	32787	53462	32595	
1141	0	32835	34909	32872	48439	32628	
1142	0	32812	34976	32839	39042	32835	
1143	0	32677	34823	32775	29864	32835	
1144	0	32722	34047	32751	24966	32919	
1145	0	32713	32987	32853	25057	32704	
1146	0	32304	33269	32869	26671	32733	
1147	0	32399	34164	32669	30304	32848	
1148	0	32576	36267	32657	34359	32700	
1149	0	32534	35871	32583	34461	32771	
1150	0	32617	33330	32455	34006	32825	
1151	0	32896	30956	32599	33936	32972	
1152	0	33084	29725	32710	31632	33117	
1153	0	32829	30571	32598	30107	32967	
1154	0	32634	30900	32605	29353	32771	
1155	0	32612	31812	32663	28967	33003	
1156	0	32608	32391	32691	26725	32890	
1157	0	32489	31914	32801	24527	32719	
1158	0	32409	32295	32729	26531	32795	
1159	0	32436	35265	32672	29767	32671	
1160	0	32472	37801	32765	33529	32509	
1161	0	32517	37990	32838	36771	32567	
1162	0	32648	34995	32807	38798	32762	
1163	0	32812	29695	32815	38675	32829	
1164	0	32885	27502	32935	36017	32711	
1165	0	32734	28113	32955	34431	32706	
1166	0	32555	29675	32741	32003	32897	
1167	0	32489	31449	32583	31115	33060	
1168	0	32539	32889	32690	29664	32992	
1169	0	32632	33526	32596	27724	32851	
1170	0	32728	35207	32541	26610	32877	
1171	0	32837	36466	32662	30710	32899	
1172	0	33074	36838	32671	35171	32953	
1173	0	33066	36335	32409	39363	32801	
1174	0	33248	35259	32288	40717	32849	
1175	0	32948	33687	32421	41005	32870	
1176	0	32514	30962	32755	38783	32801	
1177	0	32136	27353	33061	36374	32696	
1178	0	32189	25275	33399	31846	32656	
1179	0	32055	25575	33745	27723	32933	
1180	0	32337	28733	33778	24216	32891	
1181	0	33012	32527	33376	29910	32859	
1182	0	33460	35893	32644	37913	32723	
1183	0	33666	38453	31941	34974	32809	
1184	0	33527	40071	31451	32067	32736	
1185	0	33234	38935	31723	28274	32928	
1186	0	32506	36339	32101	22973	32723	
1187	0	32295	32848	32193	24245	32973	
1188	0	32561	29605	33017	28672	33035	
1189	0	32612	25173	33194	32070	32828	
1190	0	32598	22121	31707	34823	33005	
1191	0	32608	24900	31255	33193	32934	
1192	0	32713	30144	32571	34460	32744	
1193	0	33050	34646	32838	34217	33073	
1194	0	32836	35951	32775	35143	33121	
1195	0	32649	36140	32892	31569	33237	
1196	0	32816	34739	32591	29595	33366	
1197	0	32880	32818	32984	35234	33074	
1198	0	33071	32027	33280	38454	32431	
1199	0	33369	32813	33197	39527	31751	
1200	0	33414	33112	33220	41522	31807	
1201	0	33364	33203	33313	44103	31630	
1202	0	33082	33735	33343	36762	31487	
1203	0	32958	34009	33531	31302	31418	
1204	0	32586	35847	33529	29863	32450	
1205	0	31961	37740	33451	27018	32941	
1206	0	31522	36854	33149	27983	33254	
1207	0	31368	34468	32609	29533	33698	
1208	0	31832	31230	32354	32192	33565	
1209	0	32008	30046	31736	27274	33135	
1210	0	32381	31145	32097	27495	33194	
1211	0	32978	32853	32521	30239	33301	
1212	0	33607	34907	32827	33304	33040	
1213	0	33846	36837	32850	33851	32903	
1214	0	34131	36294	32839	35167	32195	
1215	0	33562	32637	32650	36759	32122	
1216	0	33040	28365	32717	37867	32792	
1217	0	32800	25633	32807	37063	33012	
1218	0	33176	26231	32882	34487	32875	
1219	0	33572	27255	32848	32911	32924	
1220	0	33733	28022	32939	34503	32929	
1221	0	33232	29091	32997	30725	32775	
1222	0	33243	30139	32909	29851	32504	
1223	0	33096	31811	33031	31867	32592	
1224	0	32652	32757	33098	37967	32737	
1225	0	32186	34259	33057	40172	32741	
1226	0	31943	34653	33234	38191	32839	
1227	0	31938	36206	33202	34298	33001	
1228	0	32199	37541	33362	28550	33053	
1229	0	32285	36183	32967	23459	33311	
1230	0	32048	35917	32663	22014	33569	
1231	0	32174	37936	33204	25998	33309	
1232	0	32286	40586	33622	27634	32743	
1233	0	32447	39402	33891	24939	32539	
1234	0	32312	37423	33137	24458	32465	
1235	0	32320	36777	32387	27015	32735	
1236	0	32152	36395	31388	33247	32768	
1237	0	32837	33682	29654	33622	32711	
1238	0	33100	31388	29511	38826	32928	
1239	0	32816	29101	29058	43920	33010	
1240	0	32923	26681	30198	50409	32932	
1241	0	33129	26203	31797	49451	32775	
1242	0	33303	26498	33384	44420	32379	
1243	0	33412	26899	34274	36708	32057	
1244	0	33376	27898	34848	24051	32368	
1245	0	33097	29479	35192	17455	32688	
1246	0	32827	28358	35321	15083	32731	
1247	0	32876	27795	34925	16617	32621	
1248	0	32926	28646	33704	27066	32961	
1249	0	32882	28424	31563	39216	32976	
1250	0	32648	30248	30434	45725	32927	
1251	0	32539	33063	30171	45123	32281	
1252	0	32488	35746	30914	44867	32010	
1253	0	32572	34855	32221	41794	32459	
1254	0	32516	33041	33376	34811	32638	
1255	0	32816	33187	34191	30170	32495	
1256	0	33222	34843	34207	30038	32916	
1257	0	33354	35169	34231	27893	32999	
1258	0	33120	35471	34563	26087	33027	
1259	0	33296	35429	34649	25973	33007	
1260	0	33317	35698	34609	27580	32973	
1261	0	33259	36202	33590	31779	33421	
1262	0	32945	38114	31496	31285	33263	
1263	0	32360	39168	29735	27278	33275	
1264	0	32284	38715	29543	27111	33040	
1265	0	32205	35543	31122	28951	32633	
1266	0	32583	32535	32525	32731	32655	
1267	0	32672	30678	32898	38437	33072	
1268	0	32846	28705	33472	42938	33204	
1269	0	33053	29319	33437	43999	33067	
1270	0	32709	29840	32495	41007	32894	
1271	0	32704	28949	32053	35847	32695	
1272	0	32565	28710	32655	32253	32528	
1273	0	32199	31239	32922	30795	31219	
1274	0	31813	32013	33252	28873	31525	
1275	0	31585	30950	33594	26547	32767	
1276	0	31826	29975	33778	26678	33362	
1277	0	31965	30663	33855	27347	33059	
1278	0	32724	31127	33776	32573	33067	
1279	0	32902	30647	33311	35171	32863	
1280	0	33129	30376	32084	35655	33223	
1281	0	33963	31231	31543	32967	32955	
1282	0	34357	32017	32071	31639	32971	
1283	0	34308	33945	31943	30180	33384	
1284	0	34232	36679	32327	28530	33729	
1285	0	33780	38898	32976	26458	33349	
1286	0	33440	40341	33216	27920	31186	
1287	0	32925	38542	33513	24822	31239	
1288	0	32306	36865	33785	23141	33060	
1289	0	32165	36135	33728	25286	33536	
1290	0	31992	35803	33556	34418	34279	
1291	0	32144	35243	32754	46006	34712	
1292	0	32327	34068	31408	52098	34057	
1293	0	32100	31309	31929	54297	32396	
1294	0	32480	28116	32211	51363	31491	
1295	0	32813	27254	32348	46237	30702	
1296	0	32846	25107	32809	45063	30539	
1297	0	33376	23540	33430	37250	31898	
1298	0	33513	22357	33486	28697	32915	
1299	0	33592	22422	33379	23244	32471	
1300	0	34172	25058	33451	21855	31571	
1301	0	34280	30169	33772	21021	33341	
1302	0	33688	34941	34559	23139	34165	
1303	0	32808	38834	35523	25330	33331	
1304	0	31633	40735	35367	27873	32615	
1305	0	31081	40411	34127	26697	33607	
1306	0	31072	37719	31893	25510	33629	
1307	0	30954	35774	28295	25414	33046	
1308	0	31168	34386	25602	23237	32424	
1309	0	32250	34602	26286	19905	33494	
1310	0	32995	36334	28551	20995	34179	
1311	0	33301	38215	31685	28069	33711	
1312	0	33424	39188	33764	34969	32039	
1313	0	32934	37340	34374	44656	32117	
1314	0	32450	34482	34311	53408	32624	
1315	0	32386	32096	34722	59730	32848	
1316	0	32752	30530	34976	56448	32204	
1317	0	33452	28400	34432	39104	31705	
1318	0	33929	26952	33097	27811	32137	
1319	0	34304	27311	32367	22886	32775	
1320	0	33707	29762	32146	27884	33515	
1321	0	32920	34047	32068	37894	33358	
1322	0	32965	38349	32422	40194	33193	
1323	0	32560	38471	32706	33581	33540	
1324	0	32292	34631	32762	31617	33583	
1325	0	32780	30857	32135	27173	33438	
1326	0	32857	29792	32500	20517	32774	
1327	0	32592	28967	33674	21735	31683	
1328	0	32142	27989	34130	30136	32383	
1329	0	31849	26953	34279	39283	32997	
1330	0	31771	28249	34251	41147	33511	
1331	0	31969	30039	34202	34043	33438	
1332	0	32309	33080	33541	26547	33010	
1333	0	32692	34227	33287	21710	32959	
1334	0	33200	31413	32517	22417	32622	
1335	0	33328	28865	32312	30056	32878	
1336	0	33316	27689	31939	37640	33329	
1337	0	33242	28298	31825	39823	33523	
1338	0	33088	30885	31431	37787	32345	
1339	0	33192	34956	31902	33226	32071	
1340	0	32645	38676	32557	31017	34036	
1341	0	32476	39929	32659	30591	34371	
1342	0	32224	39741	32361	32994	34957	
1343	0	31785	38935	32021	34226	35490	
1344	0	31730	35011	32450	33159	36570	
1345	0	32020	30891	32973	32947	35271	
1346	0	32417	30544	33161	33311	34073	
1347	0	33116	33735	33195	33071	29859	
1348	0	33572	36373	33248	35809	26816	
1349	0	33789	35307	33135	35690	29585	
1350	0	33948	33257	33155	36013	29307	
1351	0	34191	29933	33241	36825	29159	
1352	0	34080	29331	33007	35459	32210	
1353	0	33728	30568	32793	33674	34084	
1354	0	33756	32650	32787	31099	35639	
1355	0	32775	33722	32837	27984	32279	
1356	0	32104	34187	32847	27397	29206	
1357	0	32038	32943	32770	30229	28897	
1358	0	31705	30331	32919	31621	30639	
1359	0	31883	29944	32909	31859	32662	
1360	0	32703	31849	32907	30847	33299	
1361	0	32760	32987	32663	33209	34604	
1362	0	32601	32658	32611	32465	36429	
1363	0	32441	32059	32691	30542	37462	
1364	0	32263	32519	32664	24669	36871	
1365	0	32628	32011	32602	22583	33554	
1366	0	33004	30475	32550	26821	26399	
1367	0	33227	29547	32552	37312	29048	
1368	0	33126	30492	32434	40050	32345	
1369	0	33095	34309	32515	41139	32952	
1370	0	33197	35741	32641	40925	33040	
1371	0	32635	35439	32582	41193	33479	
1372	0	32494	36029	32775	41593	33749	
1373	0	32071	36317	32890	41503	33327	
1374	0	31952	35417	32880	34874	33418	
1375	0	31397	33698	32855	28208	33465	
1376	0	31599	31419	32849	25925	33745	
1377	0	32228	28695	32720	25055	33869	
1378	0	33144	27449	32630	25466	34031	
1379	0	33372	29771	32626	28790	33817	
1380	0	33382	33226	32427	33953	33394	
1381	0	33243	37171	32263	38497	33704	
1382	0	33055	37702	32291	37229	33083	
1383	0	33076	37415	32791	36263	31702	
1384	0	32569	34070	33234	30687	31160	
1385	0	32187	29759	33639	25896	31077	
1386	0	32148	26720	33890	26393	31614	
1387	0	31734	25467	34040	26171	32461	
1388	0	31382	29376	34284	27997	32931	
1389	0	31318	33430	34322	35778	33477	
1390	0	31729	35155	33991	37763	33430	
1391	0	32262	36577	33158	37147	33199	
1392	0	33094	37382	32111	34287	32775	
1393	0	33696	35039	31319	33027	33179	
1394	0	33912	30478	30791	32028	33837	
1395	0	34682	26416	30507	33104	34729	
1396	0	34896	25737	30279	33615	35847	
1397	0	34770	26877	28615	34278	35663	
1398	0	34520	28458	28794	35783	34539	
1399	0	33880	31079	31055	35623	34219	
1400	0	33184	34722	31745	32907	33280	
1401	0	32682	36333	31137	30301	31257	
1402	0	32928	37848	32029	28418	25372	
1403	0	33208	39869	33596	26016	28020	
1404	0	32904	39269	34005	23224	32786	
1405	0	32640	33702	33729	23792	35185	
1406	0	32948	28344	33960	30985	34909	
1407	0	33307	28806	34196	37859	32263	
1408	0	33146	32451	34631	38311	30842	
1409	0	32701	35399	34933	40875	31559	
1410	0	31892	35880	34618	47324	32547	
1411	0	31506	34101	32825	48491	33592	
1412	0	30953	33117	32168	46902	30838	
1413	0	31126	33447	32794	40614	30637	
1414	0	31540	32549	32972	32626	31477	
1415	0	31507	31431	32941	25829	33276	
1416	0	31794	29345	33082	18982	37085	
1417	0	32371	27177	33071	17353	34717	
1418	0	33028	27861	33152	21661	28162	
1419	0	33769	30634	33121	27394	29675	
1420	0	34236	36649	33056	33980	31934	
1421	0	34049	38864	32967	37591	32618	
1422	0	33576	39367	32935	36647	32647	
1423	0	33206	37315	32832	35714	33479	
1424	0	33016	33927	32888	34007	34895	
1425	0	32650	33253	32927	31865	36223	
1426	0	32412	32659	32899	30975	36807	
1427	0	32400	33199	32967	29945	34435	
1428	0	32459	32386	32807	29275	30590	
1429	0	32522	29445	32825	27840	32452	
1430	0	32292	29339	32850	30178	32248	
1431	0	32417	30585	32654	33879	32178	
1432	0	33086	32277	32676	39072	32135	
1433	0	32812	31847	32607	41471	34343	
1434	0	32853	30027	32579	37209	35869	
1435	0	33115	28147	32435	34482	34311	
1436	0	33164	28393	32407	33375	34509	
1437	0	32771	30697	32647	34024	36021	
1438	0	32434	33554	32850	33795	37235	
1439	0	32240	32952	32825	31674	31773	
1440	0	32573	31515	32655	29909	32793	
1441	0	32677	31482	32597	29213	33403	
1442	0	32824	35303	32583	29135	30269	
1443	0	32738	39605	32716	28432	26900	
1444	0	32582	40157	32755	28503	27997	
1445	0	32832	40473	32820	29155	29727	
1446	0	33193	37681	32764	31321	26925	
1447	0	33190	30200	32925	32341	27855	
1448	0	32621	22816	32902	31424	33195	
1449	0	32076	21563	33016	33863	36154	
1450	0	32134	24983	33435	36521	35213	
1451	0	31984	30494	33607	37195	32300	
1452	0	31842	35525	33926	37456	31372	
1453	0	32475	35662	33557	36891	32499	
1454	0	33082	34087	33287	33927	33282	
1455	0	33773	32679	32848	32929	33565	
1456	0	34028	33387	31957	31279	34874	
1457	0	34328	36401	30534	32251	34898	
1458	0	33999	36957	29208	36166	35130	
1459	0	33200	35063	29023	36124	33851	
1460	0	32772	31193	31593	34532	33686	
1461	0	31930	28943	33647	32327	34136	
1462	0	30827	28531	33976	30445	35799	
1463	0	30945	30144	33887	29357	35723	
1464	0	31346	33204	33761	28248	35096	
1465	0	32322	35561	33590	27489	32362	
1466	0	33672	36465	33155	28299	30773	
1467	0	34633	37445	31157	29665	33213	
1468	0	34905	36607	30596	33164	29495	
1469	0	34836	35551	31260	37946	30554	
1470	0	34422	33566	32604	42285	32138	
1471	0	34000	32191	33866	41707	33799	
1472	0	32863	32640	34563	37039	34747	
1473	0	31947	31861	34789	31654	35510	
1474	0	31533	31383	34823	27748	36305	
1475	0	31109	31621	34644	25588	31587	
1476	0	30714	32876	34395	28960	27371	
1477	0	30615	34042	31852	31906	31170	
1478	0	31264	36299	29444	33249	33446	
1479	0	32468	38274	30041	33059	35540	
1480	0	33581	35018	31160	34010	35847	
1481	0	34083	28771	31899	33472	33821	
1482	0	34496	24623	32601	34437	32739	
1483	0	34752	24081	32786	37100	32327	
1484	0	34384	25133	33313	35874	29880	
1485	0	33462	25913	33602	30480	29335	
1486	0	32335	28534	33407	28630	32217	
1487	0	31722	32519	33325	29921	30907	
1488	0	31195	37083	33371	31277	30651	
1489	0	30917	41231	33458	30184	31083	
1490	0	30740	43613	33381	28600	33463	
1491	0	31077	41961	33253	28167	33307	
1492	0	32112	38271	33104	29026	34256	
1493	0	33239	33669	32967	31607	34908	
1494	0	33512	28889	32793	32792	34432	
1495	0	33932	26974	32795	35204	32144	
1496	0	34804	26390	32728	39257	33243	
1497	0	34636	26800	32676	40515	35323	
1498	0	34552	29492	32752	39741	36687	
1499	0	34454	31679	32797	36961	34281	
1500	0	34119	33911	32827	32248	32459	
1501	0	33513	34247	32831	27175	34370	
1502	0	32224	35151	32801	30187	36167	
1503	0	31448	36132	32692	36754	33799	
1504	0	31141	35595	32671	40454	29698	
1505	0	30842	34853	32721	33569	29037	
1506	0	30504	29917	32847	29805	31979	
1507	0	30700	26493	32930	27596	31461	
1508	0	30928	25780	32819	29651	31461	
1509	0	32011	24448	32531	31131	32642	
1510	0	33302	22789	32573	31953	31662	
1511	0	34552	23855	32455	33176	31765	
1512	0	35387	27279	32352	33543	32281	
1513	0	35529	32139	32462	32487	31699	
1514	0	35050	37409	32515	31839	32434	
1515	0	34086	40697	32599	30671	32813	
1516	0	33284	41692	32706	31478	33442	
1517	0	31812	40929	32939	35011	33159	
1518	0	30740	40331	33253	37563	33328	
1519	0	30378	36945	33409	37831	33031	
1520	0	30279	35795	33445	36731	32192	
1521	0	29812	38170	33360	32735	32111	
1522	0	30010	40629	33060	28298	32632	
1523	0	31194	40598	33043	26510	33112	
1524	0	32939	39558	32903	28660	32976	
1525	0	34528	34199	31891	33560	33457	
1526	0	36412	28387	32530	34605	33633	
1527	0	37133	25639	33053	34816	33593	
1528	0	35847	24668	33199	29068	33342	
1529	0	33760	25697	32775	23477	33024	
1530	0	32648	28482	31751	24300	33095	
1531	0	31788	29867	30866	28928	33498	
1532	0	31232	27853	31047	33427	32609	
1533	0	30681	27519	32105	37333	32009	
1534	0	31542	27976	32024	40941	32977	
1535	0	32940	27828	31367	42823	34063	
1536	0	34209	31576	31103	43763	36482	
1537	0	35241	38194	32548	38919	36767	
1538	0	35438	43920	33688	33718	36185	
1539	0	34386	46333	33860	24858	30896	
1540	0	32836	44986	33494	20009	27081	
1541	0	31040	40128	33418	20364	22918	
1542	0	29924	35000	33045	22207	26984	
1543	0	29477	31773	32673	30929	30476	
1544	0	29594	27862	32760	40245	33658	
1545	0	29936	23648	33336	43705	34262	
1546	0	30700	20419	33368	46081	33620	
1547	0	31043	18087	33018	42115	35151	
1548	0	32025	21420	32884	39661	36205	
1549	0	32125	27974	33019	40608	36464	
1550	0	33321	33216	33298	37361	35244	
1551	0	34592	37361	33352	29051	31943	
1552	0	35698	39367	33028	23426	35349	
1553	0	36346	40269	32848	24118	34903	
1554	0	35778	40802	32523	27594	29295	
1555	0	35485	41755	32374	30490	31310	
1556	0	35353	42426	32898	33641	30439	
1557	0	34901	39834	33177	33063	29767	
1558	0	34514	34773	33133	31840	31020	
1559	0	33580	27018	32898	29123	34348	
1560	0	32700	24394	32646	24362	34726	
1561	0	32194	24071	32545	21023	36706	
1562	0	31472	26336	32562	22354	37108	
1563	0	31396	30716	32880	27298	30875	
1564	0	31444	35578	32772	37337	27098	
1565	0	32113	38401	32313	44189	31211	
1566	0	32600	37693	32279	48678	33196	
1567	0	32613	34209	32379	48617	32400	
1568	0	32432	31385	31997	41519	34330	
1569	0	32192	27350	31983	37191	35392	
1570	0	32390	22535	32736	34205	35441	
1571	0	32308	18088	33109	35770	33807	
1572	0	32162	17791	33122	30584	32663	
1573	0	32877	22113	33110	25264	26342	
1574	0	33071	27259	33281	26616	29631	
1575	0	33681	32002	33471	27713	32463	
1576	0	34288	34747	34138	31313	33537	
1577	0	33764	35815	34929	31611	33069	
1578	0	31965	37589	35314	29245	33883	
1579	0	30180	38937	35783	28928	33631	
1580	0	28952	40493	34859	31362	33122	
1581	0	28652	41959	32272	30767	33547	
1582	0	29783	44260	28533	30719	33721	
1583	0	31259	42839	28448	31687	33399	
1584	0	32888	39202	28132	29673	33595	
1585	0	34141	36999	26555	25636	33817	
1586	0	35300	35756	28583	24825	33307	
1587	0	35686	34657	30773	31794	33250	
1588	0	35594	32839	32162	33389	33495	
1589	0	35107	29503	34093	34261	34545	
1590	0	34420	26423	35310	37092	33398	
1591	0	34051	26979	36166	38598	29939	
1592	0	34159	29493	35835	39907	29107	
1593	0	33856	33567	33300	41744	31548	
1594	0	33732	36182	32985	42702	33940	
1595	0	32916	38202	33449	43280	33010	
1596	0	31906	37711	33315	40719	31643	
1597	0	31576	34789	33366	34768	29950	
1598	0	31984	30018	34243	29757	30594	
1599	0	32279	27024	35055	26817	32370	
1600	0	31175	28401	34324	25991	33811	
1601	0	30120	30437	31633	27581	34811	
1602	0	30387	30998	30740	29083	33363	
1603	0	31556	30113	32700	26382	33546	
1604	0	33444	28745	32450	18956	33275	
1605	0	33949	28727	31165	20888	33351	
1606	0	33464	30872	31559	25967	33035	
1607	0	33060	34031	33819	33829	32694	
1608	0	32984	34803	34822	43401	32748	
1609	0	33185	35261	35002	53058	32532	
1610	0	33258	34088	32199	50477	32727	
1611	0	33631	33848	29644	41810	33676	
1612	0	32960	35533	29499	33851	34134	
1613	0	32688	36418	29296	25966	34955	
1614	0	32829	35476	29854	21936	34618	
1615	0	33323	34407	30599	21861	31506	
1616	0	33828	33043	32244	24971	31751	
1617	0	33920	30933	33794	27676	33657	
1618	0	33867	29158	33957	27987	33863	
1619	0	33234	29111	33938	26887	30935	
1620	0	32200	28995	34412	28674	32624	
1621	0	31075	30727	34474	30091	32599	
1622	0	31072	33472	34112	39513	33009	
1623	0	32204	35540	34284	53058	29965	
1624	0	33610	36076	34311	57311	29264	
1625	0	34449	36237	33287	54871	29797	
1626	0	34451	32137	32622	45882	32627	
1627	0	33566	27874	33078	34946	34630	
1628	0	32849	25369	33454	25440	33820	
1629	0	31404	25607	33710	15382	31822	
1630	0	30077	27479	34129	12310	32024	
1631	0	29780	30106	33775	14067	32825	
1632	0	29751	31717	32689	20126	32983	
1633	0	29861	32446	32070	26838	32466	
1634	0	30432	35613	32842	30072	34203	
1635	0	31034	38215	32563	31573	34496	
1636	0	31842	39614	31792	29817	34849	
1637	0	33312	40294	32192	34974	34442	
1638	0	35232	37924	32367	40754	33462	
1639	0	35816	37377	32502	44843	32853	
1640	0	36213	36503	32524	44034	32515	
1641	0	35947	35145	32455	45847	32238	
1642	0	35558	32979	32410	46669	32311	
1643	0	35044	29895	32351	41218	32576	
1644	0	34324	26562	32386	31771	32831	
1645	0	33936	26112	32698	24809	32740	
1646	0	33500	25597	33021	15614	33040	
1647	0	32873	26615	33052	12668	32907	
1648	0	32638	29560	32949	19964	32896	
1649	0	32129	34552	32903	32368	32557	
1650	0	32162	38994	33099	43924	32708	
1651	0	31645	41274	33112	49570	31802	
1652	0	30821	39062	33170	50059	31255	
1653	0	30721	34722	33146	44034	31952	
1654	0	30594	30237	33014	33511	32775	
1655	0	30160	26668	33268	21646	33254	
1656	0	30215	25561	33240	14130	33981	
1657	0	30407	27011	33004	12663	34941	
1658	0	30727	29469	32669	16561	35676	
1659	0	30956	31949	31909	24853	35076	
1660	0	31424	33872	32418	34981	33376	
1661	0	32292	37424	31993	46674	32856	
1662	0	33402	39943	31782	50237	27088	
1663	0	34725	40183	31501	44345	27263	
1664	0	36050	37990	31854	39465	28832	
1665	0	37208	35889	31568	35668	30859	
1666	0	37512	34439	30156	33148	32833	
1667	0	36210	33437	31701	35756	33920	
1668	0	34512	30395	33312	38394	33858	
1669	0	33033	28679	33898	36096	33892	
1670	0	31469	26387	33313	32497	33886	
1671	0	30119	24302	32640	25815	33688	
1672	0	30101	26241	31879	21287	32763	
1673	0	30882	30342	32632	29141	32839	
1674	0	31715	36221	33878	35666	32864	
1675	0	32000	41088	34656	36882	33168	
1676	0	31840	41716	34739	32793	33385	
1677	0	32190	37330	35007	28801	33167	
1678	0	33120	32721	34756	26312	33095	
1679	0	33520	30347	33543	30851	33558	
1680	0	33146	29097	31441	33799	33215	
1681	0	33312	30046	28370	33479	33477	
1682	0	32681	32390	28463	29632	33437	
1683	0	32474	36262	31104	26451	34109	
1684	0	32544	38697	33265	23069	34162	
1685	0	32348	36581	35086	26999	33357	
1686	0	32604	30410	35807	31238	33140	
1687	0	32476	25582	34802	36280	33572	
1688	0	32868	22505	31746	37948	33641	
1689	0	33222	21157	29831	37951	33683	
1690	0	33926	22753	31106	35249	32658	
1691	0	34992	25360	31445	31995	30843	
1692	0	36072	28445	31171	30963	30932	
1693	0	36272	32564	32350	32198	30945	
1694	0	35549	36690	33328	32654	32109	
1695	0	34507	40967	33376	31559	32555	
1696	0	33522	43928	33637	30887	32101	
1697	0	32384	44128	33422	30253	31506	
1698	0	31478	41475	33210	32383	30951	
1699	0	31177	38546	33132	35031	31411	
1700	0	30719	35959	33448	36899	32707	
1701	0	30736	33403	33519	37731	35046	
1702	0	30656	33957	33522	40276	36321	
1703	0	30518	35513	33366	41671	36079	
1704	0	30916	36243	33351	37735	36626	
1705	0	31511	35999	33287	35235	36203	
1706	0	32390	32297	33323	33411	34311	
1707	0	33035	27415	32918	30948	32320	
1708	0	33612	24451	33128	31679	30242	
1709	0	34430	20432	33383	33305	29895	
1710	0	34928	20293	32866	30181	32028	
1711	0	34578	23483	32774	26935	33168	
1712	0	33530	28087	33176	23962	33950	
1713	0	32835	31220	33068	18724	32261	
1714	0	32272	34094	32805	18325	31453	
1715	0	31632	38784	31560	26617	33080	
1716	0	30813	42418	31160	37062	33991	
1717	0	30590	41212	31248	45490	33287	
1718	0	30352	39365	31239	46466	31751	
1719	0	30540	39346	32058	45476	31645	
1720	0	31011	40681	32642	46867	31399	
1721	0	31777	38957	33175	43811	31141	
1722	0	32952	33912	33192	37408	31996	
1723	0	33922	28284	33095	29319	32092	
1724	0	35068	23493	32826	19538	32281	
1725	0	35982	20851	32473	10540	32248	
1726	0	36046	20260	32304	12847	31773	
1727	0	34372	21982	32728	25588	30927	
1728	0	33008	25416	33457	43922	31497	
1729	0	32126	29672	34072	49564	33720	
1730	0	31624	35949	33464	43320	34301	
1731	0	31246	40668	34267	32818	33670	
1732	0	30906	43113	35151	29294	34267	
1733	0	31472	43251	34415	31217	35271	
1734	0	31947	39405	32162	28732	35964	
1735	0	32824	34480	31064	31653	35170	
1736	0	33395	32684	30484	37090	33248	
1737	0	34264	34224	32391	39848	30505	
1738	0	34307	35747	32742	41153	31339	
1739	0	34305	31916	30586	39061	31030	
1740	0	34060	23853	30242	33842	31496	
1741	0	33528	17212	32108	29778	33317	
1742	0	33601	18455	32767	25707	33985	
1743	0	33328	22605	32720	24309	33427	
1744	0	32306	27984	32933	27183	30727	
1745	0	31657	31827	32967	28903	31498	
1746	0	31604	36559	32751	29319	32382	
1747	0	31901	40605	33568	29906	33047	
1748	0	32546	43847	33989	33079	32916	
1749	0	33560	44524	33953	29458	33550	
1750	0	33428	43963	34285	23913	33484	
1751	0	33861	43067	34234	21969	32839	
1752	0	33087	43393	33104	24505	32678	
1753	0	32071	42912	33390	28141	32735	
1754	0	31328	42065	34162	33030	31561	
1755	0	30493	39483	34021	40455	32368	
1756	0	30640	33501	32213	46688	34695	
1757	0	32045	25308	31187	50309	35986	
1758	0	33035	17184	31728	43656	36366	
1759	0	33170	14871	33197	37491	36377	
1760	0	32996	20322	33580	37156	31639	
1761	0	32699	26769	33206	39109	27587	
1762	0	32420	30347	32423	42864	28253	
1763	0	32176	31101	31569	44219	29743	
1764	0	31996	35195	32175	35229	32180	
1765	0	32104	39266	32797	24428	33321	
1766	0	32957	36922	32263	16507	32868	
1767	0	33944	31521	31728	17712	32600	
1768	0	35113	26415	30790	22928	31113	
1769	0	36720	23749	30387	27607	30913	
1770	0	36886	24973	32137	31858	33871	
1771	0	35508	27744	33498	33975	33455	
1772	0	33432	30493	33747	35198	32762	
1773	0	31640	34851	34433	30786	34605	
1774	0	30365	38843	35795	27440	33041	
1775	0	29806	40389	35711	27007	32391	
1776	0	29833	40679	34352	32993	32004	
1777	0	30336	38331	31818	38971	31531	
1778	0	31504	32089	30584	41191	33323	
1779	0	32805	27881	28853	44337	33898	
1780	0	33885	27879	27980	42105	34402	
1781	0	34608	30836	30529	36394	33562	
1782	0	34660	33462	32582	32032	32627	
1783	0	34215	34168	32503	29959	32379	
1784	0	33656	32887	33019	28333	32739	
1785	0	33083	32633	33873	29547	32935	
1786	0	32704	32839	34151	30647	33087	
1787	0	32923	32435	34134	30243	33534	
1788	0	33301	32263	33854	31271	33722	
1789	0	33628	30965	33773	32546	33207	
1790	0	33481	30991	33185	33967	33363	
1791	0	32957	34618	32711	35154	33497	
1792	0	32576	37222	33143	35015	33261	
1793	0	32221	40380	33474	31780	32515	
1794	0	31685	42317	33488	26996	32186	
1795	0	31693	40704	33418	24619	32343	
1796	0	31751	37472	33251	24453	33431	
1797	0	32180	33622	33186	28211	35223	
1798	0	32682	31116	32861	28691	35424	
1799	0	32688	32433	32544	29848	27740	
1800	0	32603	33903	32541	31314	28797	
1801	0	32203	33024	32677	38304	32164	
1802	0	32000	28988	32630	42488	33573	
1803	0	31878	23328	32773	40317	34867	
1804	0	31424	22365	32634	36941	35869	
1805	0	30888	24159	32474	34999	35585	
1806	0	30771	29462	32743	31982	32995	
1807	0	31257	35321	32940	28071	32071	
1808	0	31457	37507	32859	30194	33024	
1809	0	32032	36480	32673	34211	32142	
1810	0	33358	35296	32461	36846	29383	
1811	0	34393	34994	32587	39262	27283	
1812	0	34976	35232	32242	40967	32577	
1813	0	35269	33165	31553	41243	36558	
1814	0	35714	31625	32249	41941	36240	
1815	0	35130	31969	32865	36430	34338	
1816	0	33682	30253	32930	28135	33733	
1817	0	32050	27013	33060	24040	34171	
1818	0	30630	26052	33104	24002	30792	
1819	0	30307	25607	33046	26882	30297	
1820	0	30515	29282	32933	27432	34254	
1821	0	32004	34781	32984	30818	37605	
1822	0	33332	39335	33103	33887	36322	
1823	0	33554	39531	33329	34849	30587	
1824	0	33811	35375	33402	34409	28929	
1825	0	34556	31000	33993	31969	31231	
1826	0	33833	27405	34308	32293	29825	
1827	0	32839	26139	34086	33255	29863	
1828	0	31928	26012	33443	31271	32757	
1829	0	31360	26311	32775	31682	33973	
1830	0	31293	29406	30571	33202	34671	
1831	0	31744	34931	28984	31382	34454	
1832	0	32072	39815	29324	27713	32835	
1833	0	32492	44202	31132	23385	34754	
1834	0	33314	46578	31778	24937	32240	
1835	0	34200	47266	32099	28164	31688	
1836	0	33494	45845	32400	32643	35068	
1837	0	32775	40519	32436	39180	34182	
1838	0	31953	34299	32313	42168	29253	
1839	0	32636	26752	33076	45391	29920	
1840	0	34021	21018	33543	44039	32202	
1841	0	35416	17665	33863	40645	33522	
1842	0	36139	19696	33791	35723	35793	
1843	0	36072	25065	33656	29766	36299	
1844	0	35755	27416	33794	25015	35478	
1845	0	33845	29030	34018	23333	35226	
1846	0	32128	30543	34093	24954	36123	
1847	0	30548	32992	33823	28718	30607	
1848	0	30076	35443	32816	31955	26179	
1849	0	30757	36963	32090	32601	28123	
1850	0	31412	36253	32891	33259	32396	
1851	0	32019	36119	33439	28429	33583	
1852	0	32720	35544	33833	28388	35335	
1853	0	32878	33842	34657	31080	37709	
1854	0	32622	33661	35957	37117	36039	
1855	0	32508	37468	35943	42230	31536	
1856	0	32888	40607	33984	41469	31910	
1857	0	33168	41773	29537	40078	32029	
1858	0	32775	37263	27428	38119	30317	
1859	0	32066	30823	27954	34280	32650	
1860	0	31279	26950	28875	35963	33426	
1861	0	30719	24583	30239	35632	31535	
1862	0	30544	23754	31811	33453	27619	
1863	0	31119	26039	32853	32624	27350	
1864	0	31720	31390	33383	31874	27933	
1865	0	32882	36155	33780	30050	31839	
1866	0	34842	36025	33771	28999	34514	
1867	0	36085	32988	33531	30231	35408	
1868	0	35532	29183	32748	28242	37966	
1869	0	34716	29138	32256	25890	41628	
1870	0	33320	31891	32342	23229	42893	
1871	0	32285	36024	32951	23251	38778	
1872	0	32090	36310	33622	26286	42834	
1873	0	31420	33852	34083	28955	43543	
1874	0	30953	30868	33961	36202	30486	
1875	0	31339	29104	33701	42137	23981	
1876	0	32395	30407	33351	43015	27075	
1877	0	33434	32400	33116	40455	24356	
1878	0	34742	35207	33040	38635	18636	
1879	0	34804	37024	33047	34432	14076	
1880	0	33892	37776	33028	32832	20212	
1881	0	32548	39353	32976	32484	28447	
1882	0	31496	39943	32552	29040	35308	
1883	0	31430	37742	32874	27001	36115	
1884	0	31809	33507	33119	26031	36119	
1885	0	32076	28859	33029	29005	36275	
1886	0	31441	26022	33128	29523	36067	
1887	0	30892	25253	32892	31723	38391	
1888	0	30665	25792	32688	38127	38119	
1889	0	31303	27482	32601	38992	38343	
1890	0	32397	30585	32628	34997	37269	
1891	0	33358	34217	32527	32629	31970	
1892	0	34552	35227	32251	33427	33014	
1893	0	34764	35175	32048	39258	33769	
1894	0	35119	32972	31935	41593	34570	
1895	0	35885	30406	32087	39229	35315	
1896	0	34861	29138	32230	33117	35304	
1897	0	33764	28835	32146	27545	29662	
1898	0	33115	31159	32066	26631	26616	
1899	0	32650	37684	32495	27864	33095	
1900	0	32475	42439	32727	27201	34736	
1901	0	33216	41682	32749	29159	32184	
1902	0	34211	39900	32898	31485	31267	
1903	0	34710	36557	33094	32211	33718	
1904	0	34705	35048	33006	35268	35264	
1905	0	34413	35312	32967	36679	35715	
1906	0	33300	33053	33279	31024	35186	
1907	0	31635	29413	33839	25654	35902	
1908	0	30157	26148	33759	32713	36632	
1909	0	29006	26257	33339	37507	37895	
1910	0	28836	28074	33129	34617	31796	
1911	0	28728	26850	33011	30392	22118	
1912	0	29336	25271	33138	30081	23556	
1913	0	29648	26584	32728	35398	32653	
1914	0	30372	30919	31795	38393	35557	
1915	0	31585	34572	31289	37987	33839	
1916	0	32984	36587	31653	34390	35334	
1917	0	34888	36495	31309	30125	35894	
1918	0	36016	35172	31792	27906	33526	
1919	0	37271	34797	31595	25088	30932	
1920	0	37427	34902	31290	29256	30636	
1921	0	36240	35953	30802	35917	29680	
1922	0	35568	35481	31303	38738	28167	
1923	0	35003	35746	33138	37383	29540	
1924	0	34838	37866	33869	38277	32749	
1925	0	33672	35416	33756	30104	35995	
1926	0	31737	28845	33732	27378	36371	
1927	0	29882	23958	33588	31021	35208	
1928	0	29558	21862	33465	35546	34720	
1929	0	29622	22582	32545	33957	31355	
1930	0	29938	25991	32448	27771	28359	
1931	0	30349	30596	33449	22997	29184	
1932	0	31291	35650	33710	28572	32849	
1933	0	32021	39802	33773	36680	32880	
1934	0	33160	42029	33866	40603	36580	
1935	0	34823	40519	33833	42011	35864	
1936	0	34995	36739	33792	39318	32000	
1937	0	33943	32032	33977	34179	27975	
1938	0	32344	28026	33684	30569	31553	
1939	0	30760	23917	33216	26893	32971	
1940	0	30318	23042	33415	25554	33317	
1941	0	29774	26083	33539	25629	34468	
1942	0	29600	33082	32131	28795	34823	
1943	0	30156	42008	30012	32199	34782	
1944	0	31672	47264	29127	37003	33887	
1945	0	33192	46880	30503	41371	34015	
1946	0	34880	40640	32121	40150	32736	
1947	0	36338	32335	32880	35940	32387	
1948	0	36581	23110	31624	31945	34936	
1949	0	35212	18407	31510	27622	35695	
1950	0	34505	20100	32384	26245	35331	
1951	0	34085	25934	33132	31490	35039	
1952	0	34196	30736	33863	40096	34087	
1953	0	34356	34823	33702	42658	32809	
1954	0	34168	38345	32748	42783	35963	
1955	0	33661	40116	32577	33142	37333	
1956	0	32902	41754	32600	23367	34715	
1957	0	32693	41415	32795	21894	35248	
1958	0	33038	38822	33148	21239	30691	
1959	0	34012	34540	33488	25316	21808	
1960	0	35410	30060	33549	30303	30025	
1961	0	36176	28550	33264	34856	36236	
1962	0	36712	29172	33200	41746	38439	
1963	0	35596	31623	32775	42730	36132	
1964	0	33620	35496	32610	36232	23922	
1965	0	31402	36544	32159	29487	29154	
1966	0	29856	33550	32741	24628	32144	
1967	0	29540	30809	33777	23998	28233	
1968	0	28984	29312	33806	31718	27589	
1969	0	28816	29865	33671	39688	32071	
1970	0	28923	30468	33237	43090	36483	
1971	0	28905	29940	32784	43755	33653	
1972	0	29276	30919	31376	42405	29286	
1973	0	29844	32303	31025	37129	29776	
1974	0	31266	34442	31549	31472	34976	
1975	0	32870	34641	32567	29209	38491	
1976	0	33571	34508	33026	26334	32109	
1977	0	33469	33787	33216	26375	31657	
1978	0	34162	31601	33095	26313	33714	
1979	0	34525	29571	32987	27517	33363	
1980	0	35046	30138	32934	29235	33639	
1981	0	34823	31592	32875	32643	32984	
1982	0	34022	33003	32821	35632	34493	
1983	0	33325	32679	32967	36132	33314	
1984	0	33887	31384	33408	31747	32563	
1985	0	34748	29575	33867	31030	33745	
1986	0	34499	27052	33933	28173	34275	
1987	0	34300	26507	33723	28545	35954	
1988	0	33510	28860	33636	33735	33710	
1989	0	32832	31956	33896	36295	33243	
1990	0	32272	37021	33539	38534	38039	
1991	0	30900	41650	33721	38816	33890	
1992	0	28776	44640	34051	37638	29181	
1993	0	26673	44947	33019	32692	21448	
1994	0	26048	40455	28484	31371	26989	
1995	0	27530	35559	26465	30365	32263	
1996	0	31004	29859	27689	30994	36416	
1997	0	34269	24320	29228	31780	36871	
1998	0	36282	21545	31252	27308	34446	
1999	0	37541	24378	32154	27642	29876	
2000	0	37296	29401	32961	35103	24745	
2001	0	36961	32868	33852	40085	27418	
2002	0	36489	33873	34426	40783	32423	
2003	0	36484	34544	34160	38140	33567	
2004	0	36514	33734	33873	29271	33772	
2005	0	35596	31431	33902	16777	31880	
2006	0	33904	31395	33946	8538	32708	
2007	0	32272	33580	34034	11407	33415	
2008	0	30224	34532	33777	20787	33716	
2009	0	29000	33466	33892	37733	34045	
2010	0	28404	33072	34036	58694	32940	
2011	0	28166	33639	33903	64232	32769	
2012	0	28626	34823	33325	60586	33522	
2013	0	28752	36944	33197	57094	33360	
2014	0	29136	37720	33430	36717	33049	
2015	0	29459	35490	34156	18532	32584	
2016	0	29336	30065	34498	12594	33951	
2017	0	30152	26920	32889	22797	34125	
2018	0	30580	26712	32467	30427	35207	
2019	0	31954	27895	32868	33955	34165	
2020	0	34210	30453	31398	34442	32395	
2021	0	36955	35196	30594	31163	32308	
2022	0	38953	39533	30676	26273	34740	
2023	0	39996	40423	31109	23940	35769	
2024	0	38854	36651	32361	25286	33699	
2025	0	36773	31379	33272	27817	31303	
2026	0	35569	27520	33478	34174	31246	
2027	0	36137	26194	33329	35691	31309	
2028	0	37028	26178	32483	32231	32513	
2029	0	36218	27854	30569	30663	33959	
2030	0	35581	31158	29730	34178	32702	
2031	0	34591	35242	30958	39263	31857	
2032	0	32792	41106	32064	41601	34718	
2033	0	30958	44930	32797	36621	38648	
2034	0	31062	46084	33813	30254	38245	
2035	0	30672	43434	34078	24349	35124	
2036	0	29448	35997	33792	21421	32898	
2037	0	27428	28305	34088	30488	25230	
2038	0	27369	24448	34648	42428	17029	
2039	0	28768	23219	34950	49501	23352	
2040	0	30791	23506	34808	51960	31377	
2041	0	32926	23658	33320	44971	32054	
2042	0	34308	25356	32231	33962	35291	
2043	0	34796	27942	32381	25191	35988	
2044	0	33760	30355	32839	22577	36160	
2045	0	32404	31905	31815	21469	39480	
2046	0	31561	33269	31600	23604	40740	
2047	0	32212	35949	32977	27336	39290	
2048	0	34183	37480	32224	31149	33435	
2049	0	36616	35860	32388	34384	23819	
2050	0	37161	32400	32313	36327	24013	
2051	0	35992	28602	30791	34004	26884	
2052	0	33368	26625	31613	30957	31661	
2053	0	30619	27314	33575	29229	33321	
2054	0	30215	30849	33351	28583	34151	
2055	0	31086	36403	31428	30291	34268	
2056	0	31661	42263	30824	29022	33370	
2057	0	31419	46173	31926	30722	33526	
2058	0	30928	46023	33366	29725	33330	
2059	0	30276	44391	34003	27251	33223	
2060	0	29766	40775	34072	27104	32837	
2061	0	29526	37312	34131	31097	34562	
2062	0	29736	34710	34115	43280	33712	
2063	0	30844	31137	34000	54546	31293	
2064	0	32360	25716	33388	58848	30752	
2065	0	33325	19162	32507	43323	32098	
2066	0	33240	17424	32336	25737	32390	
2067	0	34073	18561	33059	15979	33450	
2068	0	34246	23415	33453	18653	33376	
2069	0	34575	29689	33589	28252	32868	
2070	0	35252	35697	33700	36116	33293	
2071	0	35916	37754	33559	36678	34259	
2072	0	34823	36886	33333	30441	33550	
2073	0	33040	36623	33412	26381	35315	
2074	0	30541	37090	33246	28422	35802	
2075	0	28608	37053	32366	36254	35405	
2076	0	27557	36229	31390	38141	33197	
2077	0	29161	34386	30304	34409	32630	
2078	0	31874	32665	30205	29055	32855	
2079	0	35740	30830	31007	28899	32443	
2080	0	38587	27860	30864	30413	31160	
2081	0	39867	27553	31271	29176	31857	
2082	0	38329	30417	31929	35315	31716	
2083	0	36502	32216	32120	43892	30608	
2084	0	36066	32823	32909	46381	32007	
2085	0	35778	32711	33414	43567	33621	
2086	0	34792	32425	33287	37487	32910	
2087	0	33712	33487	32821	32583	32767	
2088	0	32488	36937	33524	30477	32539	
2089	0	30569	41659	33477	29919	32698	
2090	0	29498	43513	33176	25372	33048	
2091	0	29196	42808	33129	20021	33241	
2092	0	29216	40574	33679	16741	32192	
2093	0	29361	35279	33932	18269	32963	
2094	0	29849	29417	33885	29502	33277	
2095	0	30185	25432	34149	42074	32136	
2096	0	31104	25795	34119	48947	31196	
2097	0	31696	27973	32647	48381	31775	
2098	0	32445	30084	30343	47029	32107	
2099	0	33104	31145	30802	39845	32251	
2100	0	33306	30797	31800	27620	33056	
2101	0	32516	29832	33130	13973	32709	
2102	0	31493	27543	33957	11748	33330	
2103	0	31104	26944	34490	20309	33853	
2104	0	30957	28551	32960	34463	33510	
2105	0	30852	31166	31288	47913	33144	
2106	0	31596	33878	31935	56100	32543	
2107	0	33877	35429	31728	50521	33035	
2108	0	36422	35655	32175	39373	33052	
2109	0	37824	35456	32549	29123	32839	
2110	0	38365	33152	32391	25341	33397	
2111	0	38200	32359	31848	26482	33883	
2112	0	37084	31784	32200	22453	34095	
2113	0	35633	31023	33028	18021	32787	
2114	0	34482	29679	33588	15544	30800	
2115	0	33584	29146	33892	19000	32062	
2116	0	31698	28952	33765	31532	32457	
2117	0	31100	29909	33702	42065	30539	
2118	0	30676	33336	33765	47687	30741	
2119	0	29921	36717	33472	46906	32038	
2120	0	28931	37303	33427	44032	33210	
2121	0	27271	37063	33107	38895	33479	
2122	0	25765	36947	32569	29676	32740	
2123	0	25384	35090	32346	23333	33839	
2124	0	26085	32853	32342	21947	34351	
2125	0	28037	31872	32441	23255	33147	
2126	0	30727	34086	32386	24502	31445	
2127	0	34442	35452	32171	26053	32371	
2128	0	37909	34984	31807	29983	32833	
2129	0	39879	33307	32625	33818	31923	
2130	0	40108	30572	33331	36577	33351	
2131	0	39969	30342	33744	43090	33371	
2132	0	38052	32164	33037	41952	32613	
2133	0	35301	31847	32005	41454	30076	
2134	0	34248	30727	32070	44734	32589	
2135	0	33632	27940	32750	49531	35437	
2136	0	33808	24801	34187	46660	34699	
2137	0	33725	24532	35593	38429	31361	
2138	0	32626	28841	35094	29785	30160	
2139	0	30961	33050	32824	23960	32664	
2140	0	29470	37033	30139	23013	31720	
2141	0	28334	40028	27676	23287	33426	
2142	0	27584	39373	28691	24391	35373	
2143	0	28649	39559	29145	24610	33543	
2144	0	30522	40347	30155	24129	33257	
2145	0	32570	39591	32146	26925	31609	
2146	0	34152	35247	33504	29509	31888	
2147	0	35626	28959	34034	29454	30332	
2148	0	36198	23504	34794	30537	31308	
2149	0	35564	21095	35368	28524	33343	
2150	0	34792	22419	35455	27284	34141	
2151	0	33827	25607	34480	30086	33082	
2152	0	33418	28481	32087	36777	32533	
2153	0	33774	31192	31047	41846	34255	
2154	0	33818	35560	32888	46918	33829	
2155	0	33245	41468	32684	52308	33985	
2156	0	31904	44376	33069	49851	34951	
2157	0	29938	44241	33198	43975	35344	
2158	0	29042	43404	32511	32544	25688	
2159	0	28697	40344	33095	21377	32150	
2160	0	29360	35006	33696	18322	38265	
2161	0	30389	27392	33037	19774	36891	
2162	0	32786	23258	31191	22118	34964	
2163	0	34980	24373	31367	24047	31673	
2164	0	35250	28016	32875	25523	21581	
2165	0	35015	30838	33299	28615	24931	
2166	0	35046	32604	33367	31425	30791	
2167	0	34517	33387	33620	32177	31389	
2168	0	34072	34045	33438	32787	33033	
2169	0	33953	34659	33437	41507	32576	
2170	0	34130	38908	33712	50664	33001	
2171	0	33956	40984	33861	53447	33746	
2172	0	33675	41607	33664	46963	34781	
2173	0	32588	40919	33537	38800	34817	
2174	0	31640	36983	33462	33124	32355	
2175	0	30105	31559	32726	31151	32957	
2176	0	29564	28261	32515	27317	33119	
2177	0	29750	26344	32752	22618	32480	
2178	0	30320	25048	32692	16087	33389	
2179	0	31904	23788	32656	21425	35630	
2180	0	33787	22727	32355	30749	35108	
2181	0	35328	21958	32207	32647	35508	
2182	0	35303	22290	32542	32132	34719	
2183	0	34148	24293	32423	33653	36944	
2184	0	33173	27976	32288	35075	35533	
2185	0	32224	32253	32337	36491	33637	
2186	0	31904	35622	32583	37151	33270	
2187	0	32292	38646	32837	37814	31375	
2188	0	31944	39559	32827	38878	28252	
2189	0	31894	38185	32729	40621	31466	
2190	0	31574	34113	32768	38821	32638	
2191	0	31680	31393	32559	34318	31805	
2192	0	31928	29922	32802	25000	31576	
2193	0	33092	30565	32751	18960	30949	
2194	0	34729	33581	32984	20469	31013	
2195	0	35009	37690	33170	28172	31264	
2196	0	34461	42276	33569	35762	32505	
2197	0	33088	43550	33908	33888	33633	
2198	0	31908	39751	34191	30855	34194	
2199	0	31170	36075	33402	32495	35686	
2200	0	31621	32039	31265	34291	36485	
2201	0	32753	28104	29806	33772	35096	
2202	0	34078	25541	30354	30566	29467	
2203	0	34448	25635	31215	31564	29611	
2204	0	33734	28077	31734	33327	28929	
2205	0	32730	31376	31639	35975	30943	
2206	0	31930	35035	33285	34523	32835	
2207	0	32932	37325	34276	31803	34253	
2208	0	34258	38387	34311	29611	34205	
2209	0	34516	38706	33218	33887	33722	
2210	0	33250	38284	31013	38433	33095	
2211	0	30641	38323	31207	40696	33453	
2212	0	29474	37160	33799	36247	33836	
2213	0	28848	33836	34782	26564	33306	
2214	0	29237	29733	35349	23205	32902	
2215	0	30448	27167	35125	22128	33539	
2216	0	32492	25055	33634	27842	33320	
2217	0	34089	23472	32808	40658	33816	
2218	0	34922	22204	29384	50392	34341	
2219	0	35013	22527	29929	51172	34327	
2220	0	34716	23683	32800	44384	31879	
2221	0	35488	26659	33688	31953	30904	
2222	0	36056	31238	33705	20184	31824	
2223	0	35047	35308	33240	20456	34262	
2224	0	34292	39282	30717	28888	34609	
2225	0	33988	43256	30547	37538	35392	
2226	0	33574	45954	32711	39677	35044	
2227	0	32484	47000	34648	35147	30952	
2228	0	30620	44986	34234	29609	27072	
2229	0	29472	42242	30794	27934	29445	
2230	0	29681	38098	28042	21600	30590	
2231	0	30688	32896	29129	19038	31963	
2232	0	32313	27075	33060	28566	34260	
2233	0	32978	21953	34940	39972	36098	
2234	0	33636	19633	35360	46206	37344	
2235	0	34482	22281	35298	44669	35614	
2236	0	34808	28137	33626	38407	32445	
2237	0	34502	32555	33228	31343	32263	
2238	0	33700	33778	33000	28619	32992	
2239	0	32132	33369	32356	28751	30079	
2240	0	31272	34284	33049	29534	30706	
2241	0	31217	37328	33791	31268	36242	
2242	0	30962	40187	34060	33376	31656	
2243	0	30156	39475	33821	34029	30227	
2244	0	29385	35156	33688	32038	32547	
2245	0	28736	30315	33401	29973	32774	
2246	0	28802	25353	33408	28721	29951	
2247	0	30880	21958	33412	27986	27131	
2248	0	34008	21048	33262	29609	28690	
2249	0	36345	22705	32685	28825	32477	
2250	0	38112	27119	32160	29553	34311	
2251	0	38299	32176	31837	34456	35715	
2252	0	38315	36269	32136	37199	35398	
2253	0	37104	38981	32313	37106	34223	
2254	0	35462	40016	32632	36147	34272	
2255	0	34211	40768	32866	30820	35687	
2256	0	33080	40002	33061	25531	35987	
2257	0	31916	38919	32960	24871	35987	
2258	0	30992	36999	32740	32583	33319	
2259	0	30140	33467	32677	40316	28088	
2260	0	30249	30738	32893	46120	30279	
2261	0	30860	31188	33040	48857	34350	
2262	0	30951	31991	32724	47318	33407	
2263	0	30744	30308	32587	36896	33498	
2264	0	31112	27858	32658	24037	33723	
2265	0	31364	26533	32711	17049	34659	
2266	0	31566	26294	32670	20865	35023	
2267	0	32253	26439	32739	27354	34681	
2268	0	32546	28287	32637	33979	33395	
2269	0	33028	30495	32521	38430	33077	
2270	0	33704	34328	32441	39111	30445	
2271	0	33886	39089	32696	37377	28102	
2272	0	33789	40279	32899	34154	28692	
2273	0	32937	39275	32891	29298	29788	
2274	0	32556	37496	32751	24550	31955	
2275	0	32302	36719	32835	24409	32797	
2276	0	31544	34259	32771	27470	33718	
2277	0	31472	32263	32598	33262	34243	
2278	0	30691	30790	32685	38144	34623	
2279	0	30770	30295	32468	40530	34078	
2280	0	31308	29243	32327	38055	33468	
2281	0	31859	28807	32246	33679	33299	
2282	0	32735	28645	32544	27866	33438	
2283	0	34269	29476	32723	21092	33338	
2284	0	34960	30317	32539	19643	32943	
2285	0	35072	31149	32390	32748	33344	
2286	0	35928	31640	32497	45139	33896	
2287	0	35916	32939	32761	47379	33390	
2288	0	35015	34390	32757	39885	33384	
2289	0	33564	36423	32588	29770	33328	
2290	0	32322	38291	32478	25190	33362	
2291	0	31860	40103	32764	31457	32443	
2292	0	32583	40734	32722	38514	31766	
2293	0	32449	39397	32549	38715	32490	
2294	0	32202	34814	32137	35377	33357	
2295	0	32008	28398	32192	33153	33055	
2296	0	32120	22535	32092	30472	32684	
2297	0	32704	20794	32877	30931	32801	
2298	0	33336	24125	32722	30333	32407	
2299	0	33652	29498	32199	27629	32679	
2300	0	33180	34352	32620	27187	32605	
2301	0	32020	38022	33262	29669	33403	
2302	0	31593	41892	33557	32931	33470	
2303	0	31853	44282	33177	34976	31777	
2304	0	31749	45466	32925	35515	31505	
2305	0	31986	43869	33191	31664	32058	
2306	0	32746	40843	33031	31353	33466	
2307	0	32937	36247	32775	29121	33938	
2308	0	31969	29667	32800	29005	33981	
2309	0	31200	21805	32712	28754	33116	
2310	0	31188	14184	33178	27729	32896	
2311	0	32196	10371	33077	26898	32464	
2312	0	34354	13361	32792	30703	31618	
2313	0	35884	19362	32565	41712	32755	
2314	0	36888	26337	32654	49412	33157	
2315	0	37034	32455	32434	48963	32816	
2316	0	36607	36961	32051	42567	32775	
2317	0	35112	39592	31879	36077	33505	
2318	0	33597	40259	32655	30470	34983	
2319	0	32592	41824	33428	28791	33381	
2320	0	31812	43437	33446	28545	30855	
2321	0	30523	45138	33488	31941	31947	
2322	0	30458	45261	33377	33087	34025	
2323	0	30412	42146	33348	31873	35161	
2324	0	30792	37107	32765	30445	34430	
2325	0	31486	31440	32655	28402	31996	
2326	0	31487	26841	32108	29797	31597	
2327	0	31683	21525	32280	30117	30586	
2328	0	32062	17840	32500	29617	30023	
2329	0	33227	18882	32516	29778	32789	
2330	0	33878	22839	32323	29157	33321	
2331	0	34412	26678	32427	28368	32095	
2332	0	34168	31725	32650	27403	32668	
2333	0	32942	39259	32978	27451	33321	
2334	0	32293	45478	33587	30684	33198	
2335	0	32440	47571	33897	32722	31804	
2336	0	32424	44351	33580	34217	32071	
2337	0	31628	39024	32973	39431	33563	
2338	0	30740	34514	32648	44174	33181	
2339	0	30597	31239	32798	45136	33014	
2340	0	30704	28600	32898	46763	34044	
2341	0	30912	26377	32738	46663	33902	
2342	0	31469	24408	32507	40625	33983	
2343	0	32352	24029	32732	28610	35059	
2344	0	33342	25646	32775	19642	34445	
2345	0	34528	28894	32825	19314	31810	
2346	0	34320	31494	32969	23676	33935	
2347	0	33389	33021	33046	31140	36149	
2348	0	32379	34172	33054	36577	34147	
2349	0	31381	37157	33024	39156	25274	
2350	0	30675	39874	32750	31921	24172	
2351	0	29858	39661	32632	20616	30692	
2352	0	30041	40301	33073	14467	32877	
2353	0	30596	39811	32723	20841	34208	
2354	0	31954	37179	31783	32162	33862	
2355	0	33560	32745	30949	38693	32699	
2356	0	35845	28685	31371	42586	33232	
2357	0	38677	27801	32213	41458	32413	
2358	0	40217	28679	32622	37137	33323	
2359	0	38742	30879	32363	34311	32912	
2360	0	35399	34209	32257	34359	32985	
2361	0	33117	36110	32475	34635	34387	
2362	0	31739	35283	32840	37089	33069	
2363	0	30907	31641	33300	38949	33503	
2364	0	31153	26232	33382	36850	35015	
2365	0	31984	23225	33017	30948	34187	
2366	0	33170	23141	32909	23799	33576	
2367	0	34598	25959	32623	28626	31047	
2368	0	35314	28882	32560	35363	32540	
2369	0	35331	32263	32469	41771	36622	
2370	0	34392	35650	32819	45595	34089	
2371	0	32664	40317	32926	40204	32164	
2372	0	30693	43625	33159	30953	27346	
2373	0	29355	44516	33269	25161	33949	
2374	0	29468	44782	33273	24579	33665	
2375	0	29412	42325	33262	24453	35152	
2376	0	29544	39211	32949	25091	35847	
2377	0	30949	34288	32890	24200	30353	
2378	0	32342	26834	32974	26627	20807	
2379	0	32636	18429	32770	27944	26730	
2380	0	32196	14966	32544	27601	36904	
2381	0	31344	17264	32607	28822	38521	
2382	0	31900	23692	32912	33915	37587	
2383	0	33104	32015	33316	40824	34800	
2384	0	34003	39152	33394	42874	28094	
2385	0	34426	42166	33079	42957	27171	
2386	0	35045	42874	32880	42724	30987	
2387	0	35168	41351	33069	42237	33987	
2388	0	35492	36359	32880	40200	33812	
2389	0	35906	30169	32280	36378	30881	
2390	0	36146	25095	31933	30828	32532	
2391	0	35986	23668	31943	27744	35335	
2392	0	35744	26685	32722	27788	37217	
2393	0	34696	31051	33287	26864	37478	
2394	0	32996	33373	33396	26149	35872	
2395	0	31364	33965	32906	28743	28110	
2396	0	30392	35142	31961	33428	31337	
2397	0	30165	36295	32105	33735	31883	
2398	0	30138	36859	33584	31619	31859	
2399	0	30136	36859	33843	30295	31303	
2400	0	29494	36511	32735	29579	32736	
2401	0	28531	35999	32465	29685	34119	
2402	0	27826	33932	32448	28570	33015	
2403	0	28722	31237	32416	30741	32953	
2404	0	29181	29660	29319	33772	34775	
2405	0	30156	29613	29871	33647	36859	
2406	0	32063	29115	31472	33504	38233	
2407	0	33440	28741	32177	37888	35004	
2408	0	34505	29904	32825	39586	32175	
2409	0	35556	31021	33197	38167	31465	
2410	0	36356	33314	33547	32701	29915	
2411	0	35211	35842	33718	31531	30951	
2412	0	34272	37198	33770	29803	32123	
2413	0	33678	39243	33387	29882	31160	
2414	0	33227	41156	32787	28109	30049	
2415	0	33390	39623	32124	33268	30767	
2416	0	33981	33649	32710	37677	32725	
2417	0	35641	27543	33378	38328	33419	
2418	0	36388	23007	33651	34025	33528	
2419	0	34706	21677	33949	26148	32216	
2420	0	33149	23743	33858	23093	31813	
2421	0	31580	26601	33674	27304	32650	
2422	0	30072	30477	33568	37636	33945	
2423	0	29968	36085	33239	42151	33525	
2424	0	31218	39623	32803	36344	32647	
2425	0	32413	40220	32307	26226	32454	
2426	0	32662	39181	32095	23136	32950	
2427	0	33474	37204	32390	35922	32877	
2428	0	34176	35309	32421	47192	33018	
2429	0	34725	31355	32556	49055	32824	
2430	0	35032	28507	32731	40327	33210	
2431	0	34260	28858	32736	29024	32740	
2432	0	32725	29404	32864	22153	31955	
2433	0	30992	30515	32902	25067	33223	
2434	0	30106	32447	32995	29253	32978	
2435	0	29358	34053	33155	31666	33001	
2436	0	28251	34004	33371	32963	33255	
2437	0	28097	33440	33313	34698	33714	
2438	0	28861	31448	32993	39972	33122	
2439	0	31044	30131	32672	43979	31170	
2440	0	33453	31917	32531	41661	34199	
2441	0	35204	34806	32352	33445	34311	
2442	0	36632	37930	32363	27769	33249	
2443	0	37254	38530	32349	25416	34433	
2444	0	37357	35320	32332	22511	33459	
2445	0	35657	30981	32605	19552	33530	
2446	0	33456	29620	32490	19763	34437	
2447	0	32772	30755	32313	27287	34661	
2448	0	33380	32367	32114	34191	33063	
2449	0	33819	33043	32345	36466	32711	
2450	0	35020	33000	32428	33778	30868	
2451	0	35708	31079	32177	31421	27975	
2452	0	35404	29621	32587	35527	30203	
2453	0	34675	29507	32804	41593	30431	
2454	0	33768	29335	32981	46535	33132	
2455	0	31960	29269	32570	42593	33883	
2456	0	30742	31411	33051	36871	34082	
2457	0	29129	34668	33173	32697	35350	
2458	0	27920	37693	33160	27386	36749	
2459	0	27555	41456	33179	26584	32845	
2460	0	28960	43527	33248	28807	30081	
2461	0	30692	41094	32969	32313	30641	
2462	0	32216	35282	32628	36069	31355	
2463	0	33132	27938	32516	30753	31840	
2464	0	34928	20999	32610	23067	33046	
2465	0	36057	18799	32359	21745	33488	
2466	0	35864	21779	32614	27268	33387	
2467	0	35154	26598	32468	37319	32368	
2468	0	33517	32745	32320	43379	31768	
2469	0	32044	37768	33140	44344	31300	
2470	0	31023	41322	33761	40368	31296	
2471	0	30345	42764	34031	32603	33979	
2472	0	30026	41640	33773	26951	33948	
2473	0	30029	38819	32903	26175	32263	
2474	0	30595	34381	31846	31167	32905	
2475	0	31903	29447	31879	35244	34834	
2476	0	33592	25726	31464	36744	35782	
2477	0	35140	23657	30562	34347	35718	
2478	0	36728	24236	31285	26025	34480	
2479	0	36688	27219	31879	21881	33781	
2480	0	35000	32019	32204	20978	29560	
2481	0	32933	36478	32775	29792	25589	
2482	0	31145	37680	33254	43136	28154	
2483	0	30718	37875	33042	49251	29108	
2484	0	30989	39017	33055	47151	30559	
2485	0	31002	39373	33184	37608	33497	
2486	0	31261	38302	33299	30287	34604	
2487	0	31800	35534	33567	28145	35365	
2488	0	33146	31354	33764	29513	35634	
2489	0	33932	28993	33777	31442	31363	
2490	0	34885	29091	33682	33503	31143	
2491	0	34408	30048	32819	33917	33426	
2492	0	32960	30367	32071	30463	33717	
2493	0	31908	29684	32467	28331	33683	
2494	0	31596	28320	33312	24809	34183	
2495	0	32445	27689	33671	22426	35067	
2496	0	33449	27444	33479	26303	34119	
2497	0	33906	27611	32513	29217	32082	
2498	0	33944	27376	31588	33781	32455	
2499	0	33729	27464	30120	38786	32876	
2500	0	33600	30522	31442	44969	31724	
2501	0	33250	35592	33095	48088	32640	
2502	0	32898	39766	33653	43715	31457	
2503	0	32402	40292	33473	33594	31493	
2504	0	31122	40089	33126	25758	32219	
2505	0	31000	38983	32825	21157	33700	
2506	0	31996	37917	32736	19702	33753	
2507	0	32568	36533	33121	21891	33625	
2508	0	33297	36435	33174	24655	32893	
2509	0	33530	35749	32359	29178	33589	
2510	0	33277	34421	31785	40218	33239	
2511	0	33336	34139	31953	49717	32789	
2512	0	33804	34234	32685	51715	32639	
2513	0	34038	33351	33124	45266	32557	
2514	0	33502	31287	33143	37072	32910	
2515	0	32953	28287	33144	30380	33437	
2516	0	32718	25747	33113	28516	33743	
2517	0	33234	24214	33015	29523	32927	
2518	0	33848	24863	32872	28464	32225	
2519	0	33467	27429	32967	28749	32578	
2520	0	32690	31219	33095	29695	33516	
2521	0	31171	34913	32991	29893	32386	
2522	0	29436	38749	32941	30753	33078	
2523	0	29632	40304	32850	28769	33195	
2524	0	30562	38534	32740	25731	33315	
2525	0	31937	34695	32626	21087	32448	
2526	0	33301	29527	32557	20435	31233	
2527	0	34106	27301	32579	31640	32270	
2528	0	34250	28859	32583	41864	32775	
2529	0	33832	33309	32532	46811	32665	
2530	0	33474	40109	32775	47369	31832	
2531	0	32867	44237	33085	45695	32884	
2532	0	32295	44215	33063	42213	33130	
2533	0	32137	37842	32984	37575	32802	
2534	0	32428	30382	33049	30356	34328	
2535	0	31948	25217	33018	23987	35590	
2536	0	31834	23174	32961	22602	34375	
2537	0	32112	23147	32837	23816	31805	
2538	0	32597	23008	32553	25114	32381	
2539	0	33381	23959	32500	27760	33050	
2540	0	34369	24759	32602	28967	30898	
2541	0	33824	25909	32762	30685	30773	
2542	0	32862	28167	32690	34962	31914	
2543	0	32677	30868	32829	40901	32317	
2544	0	32504	36016	33407	42055	33208	
2545	0	31902	42781	33873	39217	33341	
2546	0	31593	47533	33554	40174	32647	
2547	0	30711	49512	32860	37568	31537	
2548	0	30828	48850	32155	31590	32786	
2549	0	31667	42679	32238	26653	32479	
2550	0	32537	32321	32642	26065	32711	
2551	0	33181	21240	32348	30028	33314	
2552	0	34606	15675	31181	34008	33192	
2553	0	36323	16619	30959	34409	34013	
2554	0	36296	21160	31558	29187	33028	
2555	0	36475	25709	31829	23195	31549	
2556	0	34992	30999	31621	19665	33004	
2557	0	34205	34618	32000	23024	32793	
2558	0	33669	37411	32899	34008	32667	
2559	0	32924	39255	32849	36026	31314	
2560	0	32425	41751	32448	35825	32877	
2561	0	31785	42445	33238	32930	32028	
2562	0	30916	41305	33706	35493	32239	
2563	0	31047	39338	33724	43334	33960	
2564	0	31687	37742	33674	47155	30994	
2565	0	32351	35881	33527	44778	32701	
2566	0	32650	33756	33216	40242	34706	
2567	0	32457	32886	33126	33124	34739	
2568	0	30748	30083	33185	27205	31354	
2569	0	29510	27227	33145	29412	30640	
2570	0	29880	24190	32944	33177	30890	
2571	0	31271	23115	32896	31634	31501	
2572	0	34055	23043	32711	31718	33187	
2573	0	36167	23978	32665	33189	34096	
2574	0	36944	24655	32565	27695	33873	
2575	0	36020	25962	32380	21652	33452	
2576	0	34530	27702	32646	18905	33601	
2577	0	33451	29494	32843	16913	33708	
2578	0	32932	33700	32928	23416	34626	
2579	0	32775	37620	33048	38118	34721	
2580	0	31580	41108	33060	47732	30994	
2581	0	30611	44632	33201	50714	29483	
2582	0	29872	49664	33195	46428	30715	
2583	0	29188	51598	33127	38834	32562	
2584	0	28548	49654	33056	35264	33518	
2585	0	28706	44122	32820	36571	33848	
2586	0	29930	35237	32597	36218	35059	
2587	0	31232	25756	32585	32199	35335	
2588	0	33784	19304	32605	25933	34823	
2589	0	37104	16176	33097	23282	34162	
2590	0	37321	17580	33335	22647	31316	
2591	0	35690	20525	33821	26599	31666	
2592	0	34842	23602	34090	31529	33175	
2593	0	34658	26685	33633	31955	34962	
2594	0	34311	29963	32261	32646	32962	
2595	0	33911	32711	30857	32942	31584	
2596	0	33124	36674	29935	31528	30090	
2597	0	31261	40259	30311	28708	30570	
2598	0	30230	43067	29978	26277	31307	
2599	0	30496	43782	30566	26473	33472	
2600	0	31887	44201	31987	25071	33697	
2601	0	34306	42269	33257	30647	33078	
2602	0	35787	38291	33312	43148	32162	
2603	0	36395	32845	33586	49351	32987	
2604	0	34951	28807	33345	49355	33714	
2605	0	33863	26815	33331	45529	33976	
2606	0	33472	26063	33337	38357	33250	
2607	0	33048	25308	33547	33607	32317	
2608	0	33076	25509	33882	32247	34171	
2609	0	32188	27519	33430	32263	33174	
2610	0	31328	28611	33538	28363	32896	
2611	0	30786	30858	33415	23835	34076	
2612	0	30636	34714	33071	25803	33753	
2613	0	31176	38400	32979	31458	31592	
2614	0	31624	40937	33399	34787	33171	
2615	0	31696	43665	34162	34515	34030	
2616	0	31896	45953	34440	31875	32664	
2617	0	32115	43823	34424	27143	29963	
2618	0	32011	35361	33856	27024	31536	
2619	0	31361	25312	32435	28050	33072	
2620	0	31202	17608	30370	28912	32944	
2621	0	31988	12987	31528	32848	34740	
2622	0	32690	13617	32349	36717	32800	
2623	0	32292	20554	32027	38445	31751	
2624	0	32021	26326	31217	35959	31165	
2625	0	31269	30765	30549	33312	31806	
2626	0	31100	35654	31044	30687	32871	
2627	0	31960	40402	31249	29343	33281	
2628	0	34440	43719	31994	29213	33116	
2629	0	36900	43179	32832	28061	33461	
2630	0	37984	41199	33209	28761	34535	
2631	0	37468	38759	34053	31309	33923	
2632	0	36265	37430	34191	32528	30950	
2633	0	34700	34668	32965	35780	31022	
2634	0	33259	30864	31107	42832	30936	
2635	0	32328	26136	31648	47306	31586	
2636	0	31994	22504	32661	47039	32914	
2637	0	31730	22050	33306	42074	33735	
2638	0	31202	24460	33648	31068	34379	
2639	0	31097	28298	33698	25023	33381	
2640	0	31331	32323	33833	25588	33077	
2641	0	31401	35710	33609	25582	32560	
2642	0	32263	38946	33607	28456	33716	
2643	0	33001	41974	33647	30840	37763	
2644	0	32833	43458	33567	31427	35606	
2645	0	31846	42119	33031	30611	31788	
2646	0	31089	38620	32767	29944	28812	
2647	0	31372	33663	32690	30181	28575	
2648	0	32114	30615	32592	31331	28146	
2649	0	32248	30020	32803	30022	31387	
2650	0	32337	30813	32931	27975	32608	
2651	0	32784	33629	32985	29468	35671	
2652	0	32928	36600	33181	35188	34428	
2653	0	32724	39046	33159	43605	32485	
2654	0	32208	41237	33138	44880	32493	
2655	0	31896	41863	32868	39773	32248	
2656	0	31789	39559	32995	37794	32395	
2657	0	31880	34710	32568	34959	35493	
2658	0	32136	28192	31625	27034	36413	
2659	0	32788	22578	31739	21291	36876	
2660	0	33576	18401	32677	19252	31657	
2661	0	34160	16870	32693	21154	29724	
2662	0	34346	18915	32732	29782	24964	
2663	0	34508	23836	32889	39381	29694	
2664	0	34498	27328	32939	48384	33072	
2665	0	33774	29227	33047	47553	33061	
2666	0	33224	32371	33199	44588	35646	
2667	0	33430	35072	33616	36901	36726	
2668	0	33440	36992	33940	29191	35347	
2669	0	33520	38453	33589	26786	34034	
2670	0	33595	38631	32997	25919	34838	
2671	0	34143	37593	31558	28836	28504	
2672	0	34546	35833	30599	31441	27890	
2673	0	34190	32992	30639	30503	34460	
2674	0	33012	30912	30088	29325	35885	
2675	0	31228	30177	31192	29634	34007	
2676	0	30836	31687	33278	30919	31855	
2677	0	30845	33047	32473	33151	33234	
2678	0	31289	33791	30447	35188	34137	
2679	0	31797	34715	30459	35561	34711	
2680	0	32587	35666	31484	32448	32240	
2681	0	33194	37941	32794	28772	30161	
2682	0	33208	40376	33879	26598	30983	
2683	0	33170	41029	34381	29215	33230	
2684	0	31941	38617	34269	32911	33264	
2685	0	31879	34823	34033	33152	33070	
2686	0	31866	29579	33850	35833	33671	
2687	0	32132	25483	33985	37624	33792	
2688	0	32969	23761	34143	36105	32903	
2689	0	34040	25180	33901	33039	32038	
2690	0	33889	27169	33927	32468	33055	
2691	0	33360	29047	33732	35714	32793	
2692	0	32993	30725	32003	37447	33065	
2693	0	32337	32573	31971	37023	33344	
2694	0	31234	34151	32803	32059	33654	
2695	0	30442	36014	33354	29698	34025	
2696	0	29912	38083	33462	32170	32913	
2697	0	30378	38919	33856	35576	31269	
2698	0	31519	38029	34064	33971	32962	
2699	0	32962	35106	33711	26553	32784	
2700	0	33235	32165	33081	24278	32647	
2701	0	33521	30370	31365	25634	33232	
2702	0	34018	30132	31197	32757	32756	
2703	0	34267	29117	31984	39424	33074	
2704	0	35024	28541	31919	41963	33160	
2705	0	35250	28778	30639	41114	33353	
2706	0	35420	29839	29775	36334	32959	
2707	0	34823	31809	30139	32105	33176	
2708	0	34166	33528	31700	26651	33407	
2709	0	33442	34507	33551	24446	32616	
2710	0	31974	36450	34066	28018	31879	
2711	0	30674	37018	33761	32695	32502	
2712	0	30112	35635	33427	36331	32839	
2713	0	30259	33111	33210	35124	32217	
2714	0	30552	30657	33701	30575	32297	
2715	0	31975	29529	33791	26502	32191	
2716	0	33339	28646	33758	25646	33851	
2717	0	34274	28216	33709	31901	33060	
2718	0	33993	27587	32890	38116	32309	
2719	0	33298	26107	32860	42219	33102	
2720	0	32954	23797	33534	41983	33191	
2721	0	32608	23569	33027	34418	32813	
2722	0	33133	28679	31607	29906	32804	
2723	0	34286	36182	31555	30459	32742	
2724	0	34848	42857	32374	31982	32696	
2725	0	34747	46636	32928	31785	32683	
2726	0	33624	46125	33427	34150	32179	
2727	0	32424	41858	33363	34424	32130	
2728	0	31533	36928	30809	36261	31977	
2729	0	30424	32695	30176	36357	33031	
2730	0	29807	30791	31980	35791	33595	
2731	0	29458	31078	33222	32197	32562	
2732	0	29160	31866	33450	28539	32443	
2733	0	30081	32021	33546	24683	32989	
2734	0	31904	32655	32911	25895	32939	
2735	0	34146	33352	31751	32420	32752	
2736	0	35872	33363	32390	38983	32787	
2737	0	36944	32745	32775	40626	33120	
2738	0	37161	31406	33363	34877	33687	
2739	0	36562	29295	33415	28055	33125	
2740	0	34424	28014	33557	26095	32461	
2741	0	32516	27462	33087	26991	32194	
2742	0	30979	28029	33227	32365	32939	
2743	0	29932	29533	33266	35163	32903	
2744	0	29947	31479	33313	37374	32369	
2745	0	30464	34148	33058	34060	31943	
2746	0	31316	37572	32916	28104	33128	
2747	0	32380	41199	32870	24120	32980	
2748	0	33464	43379	32802	23829	33064	
2749	0	34601	43097	32732	26651	33373	
2750	0	35578	41671	32728	31071	32148	
2751	0	35496	38210	32615	37649	33254	
2752	0	34733	32408	32647	40202	34397	
2753	0	33588	26718	32922	41136	35300	
2754	0	32872	23024	32925	41990	34238	
2755	0	31906	20082	32967	41461	31152	
2756	0	31634	19758	32864	41402	28226	
2757	0	32379	22611	32567	42077	29579	
2758	0	32848	27954	32488	42454	33046	
2759	0	32890	32610	32681	36786	35306	
2760	0	32656	36032	33013	25325	36464	
2761	0	32099	38002	33124	18969	37785	
2762	0	31449	37178	32997	19316	36835	
2763	0	30466	36999	32869	24776	30280	
2764	0	29852	36863	32775	28626	28879	
2765	0	29767	34959	32591	31156	29981	
2766	0	30907	31328	32392	33180	29252	
2767	0	32837	29732	32473	35153	27551	
2768	0	34355	29067	33243	34958	30765	
2769	0	35408	29978	33435	32813	33926	
2770	0	35937	31152	32619	29383	34154	
2771	0	34788	31151	31251	28707	34835	
2772	0	33379	29469	30713	31239	35049	
2773	0	32391	28359	29935	32485	34393	
2774	0	31600	29363	29200	34913	33688	
2775	0	31769	30836	30400	36551	32944	
2776	0	32410	31687	32023	39224	29859	
2777	0	33696	32489	33201	40384	31674	
2778	0	34922	33581	33956	38054	34063	
2779	0	36495	35536	33994	33799	34848	
2780	0	36509	37957	34059	30106	34308	
2781	0	35490	40025	33836	29753	33191	
2782	0	34050	39459	33239	29506	32948	
2783	0	32394	37337	33331	31511	33259	
2784	0	30653	35032	34169	30659	31907	
2785	0	30229	33897	34669	28501	32475	
2786	0	30225	34639	34144	26881	34360	
2787	0	30258	35590	33041	23188	34154	
2788	0	30400	36728	31539	27992	33009	
2789	0	30870	38315	31034	35843	29542	
2790	0	31533	40065	31947	40147	29325	
2791	0	31565	41511	33028	41312	30238	
2792	0	31354	40597	33657	40278	32865	
2793	0	31128	36803	34138	36803	34138	
2794	0	31588	29074	33214	32564	33366	
2795	0	32515	20265	32962	29230	32678	
2796	0	33147	14767	32865	28431	33075	
2797	0	33148	14312	32865	29887	33778	
2798	0	33119	16876	33091	35828	33600	
2799	0	33150	22288	32520	39594	33377	
2800	0	33166	27375	32647	39082	33334	
2801	0	33522	32751	33033	34730	33586	
2802	0	33888	37777	33131	32981	33299	
2803	0	33293	40449	33027	31542	33546	
2804	0	32877	40007	32943	31915	30587	
2805	0	33574	38631	32889	30941	32291	
2806	0	34376	39623	32914	30790	32717	
2807	0	34455	40771	32953	30813	32706	
2808	0	34331	42134	32940	30183	33344	
2809	0	33380	41053	33040	28024	34667	
2810	0	32468	39283	33025	27584	34583	
2811	0	31722	35740	32896	32502	34659	
2812	0	31307	30479	33056	34533	34351	
2813	0	30820	25370	33222	32057	29272	
2814	0	30964	22053	33053	30548	27750	
2815	0	31188	20428	32415	32504	32037	
2816	0	31949	19579	32027	31996	33488	
2817	0	32801	20977	32041	28886	33325	
2818	0	33360	22602	32006	30438	33315	
2819	0	33464	25445	32243	30838	33920	
2820	0	33626	30309	32473	33728	33078	
2821	0	34000	33393	32448	40086	31705	
2822	0	33815	36359	32109	44652	33066	
2823	0	34208	38844	31905	45416	34211	
2824	0	35149	40727	32501	45170	33999	
2825	0	35353	41682	32919	38407	34441	
2826	0	34522	41670	33108	28072	33769	
2827	0	32844	43067	33120	21996	30791	
2828	0	31771	42171	33230	21726	28059	
2829	0	30851	39789	33082	21890	30323	
2830	0	29968	38069	32932	28295	33968	
2831	0	29672	37520	32817	36427	32797	
2832	0	30462	35686	32634	38393	32637	
2833	0	31979	30498	32363	37058	34358	
2834	0	33851	24531	32276	31177	34220	
2835	0	36072	21294	32469	25195	33259	
2836	0	37236	21941	32493	25402	33009	
2837	0	35796	21557	32909	33259	33532	
2838	0	33698	22785	32995	36345	33051	
2839	0	31949	26187	33040	36591	32109	
2840	0	31321	30489	33107	34724	32559	
2841	0	30732	34808	33193	34230	33282	
2842	0	30355	38624	33265	31821	33015	
2843	0	29999	40192	33159	32618	33576	
2844	0	30114	41589	32843	36626	33479	
2845	0	31751	41133	32515	38842	33095	
2846	0	33962	37361	32282	36475	32837	
2847	0	35794	32726	32184	31806	32984	
2848	0	35847	28872	32253	28391	33233	
2849	0	35142	28328	32619	25123	32893	
2850	0	33910	30370	32907	18635	32884	
2851	0	32699	33999	32869	18949	32731	
2852	0	31884	37266	32937	24973	33051	
2853	0	31797	37797	32772	33799	32744	
2854	0	31888	34452	32645	42794	32893	
2855	0	32302	29556	32718	48992	32800	
2856	0	32617	26904	32826	52922	33071	
2857	0	33036	26621	32936	48506	33223	
2858	0	33222	27968	32993	35571	32689	
2859	0	33000	29448	32975	22278	33227	
2860	0	32829	32004	32707	20159	32775	
2861	0	32540	35828	32555	26798	32522	
2862	0	32124	39075	32651	33584	32224	
2863	0	31310	40022	32736	39815	32655	
2864	0	30443	41330	32833	39873	32490	
2865	0	30227	42535	32967	35506	32688	
2866	0	31232	44160	32889	27500	32953	
2867	0	32037	44966	32734	23047	32509	
2868	0	32539	41732	32530	22038	32564	
2869	0	33216	32696	32424	20189	31012	
2870	0	33836	22305	32297	23261	32075	
2871	0	34309	15023	32297	27965	33349	
2872	0	34576	13678	32300	33778	33483	
2873	0	34640	16550	32523	38703	33684	
2874	0	34179	21711	32725	43067	34354	
2875	0	33938	26409	32999	47758	34804	
2876	0	33496	29447	33106	46563	31020	
2877	0	32912	31771	33074	40967	31223	
2878	0	32183	34103	33033	35818	33252	
2879	0	31526	38794	32891	33866	34153	
2880	0	31395	43970	32888	35401	31797	
2881	0	31416	47555	33020	35561	28975	
2882	0	31879	48703	33152	30450	31774	
2883	0	32224	45314	32993	25215	32993	
2884	0	31869	39056	32913	26221	32631	
2885	0	31981	30608	32952	26899	32602	
2886	0	32788	22794	32771	26946	34415	
2887	0	33845	16145	32675	27355	35581	
2888	0	34413	12775	32628	27000	36828	
2889	0	34232	16383	32647	25038	35922	
2890	0	33406	25746	32812	28402	34960	
2891	0	33146	35969	32935	28217	36122	
2892	0	33408	45418	32812	31832	29384	
2893	0	33728	50936	32440	35590	23104	
2894	0	33328	49831	32658	40992	26358	
2895	0	32024	44729	32698	44240	32433	
2896	0	30972	36904	32864	46742	34041	
2897	0	30761	28810	33248	42279	32204	
2898	0	31734	21840	32924	35105	32016	
2899	0	32452	17060	32322	28256	32965	
2900	0	33300	14299	31953	26405	33333	
2901	0	34189	15198	31997	26480	34740	
2902	0	34480	18296	32599	28511	36668	
2903	0	34005	23591	33652	29315	35860	
2904	0	33368	32124	33794	29378	31769	
2905	0	33188	42222	33572	30822	30482	
2906	0	33750	48969	33680	32909	33170	
2907	0	33360	50758	32463	36731	33844	
2908	0	32600	49740	30769	38048	34144	
2909	0	32168	47239	29819	36685	34053	
2910	0	32946	44864	30302	37134	33357	
2911	0	32904	41471	32301	34995	34551	
2912	0	32088	36988	33147	31361	33849	
2913	0	31301	30681	33545	26653	28402	
2914	0	31845	23750	33383	24400	28274	
2915	0	32763	17593	32784	22236	31866	
2916	0	33582	13334	32590	24488	33307	
2917	0	34458	13956	32660	34666	32658	
2918	0	34439	20857	31979	43202	32726	
2919	0	34528	28839	32229	46716	33023	
2920	0	34866	35847	33273	45221	33381	
2921	0	34400	41667	34043	40532	34125	
2922	0	32930	45719	34505	32616	31791	
2923	0	30842	49176	34131	26109	32688	
2924	0	29680	49887	33714	27296	32511	
2925	0	28926	47051	33526	30495	33698	
2926	0	28768	39105	33188	32688	33248	
2927	0	29312	29722	32518	29474	33072	
2928	0	30312	22354	31896	25728	32895	
2929	0	31211	18152	31771	25510	33968	
2930	0	32952	16957	31568	27884	34066	
2931	0	35164	19474	32132	34340	32196	
2932	0	36047	24484	32917	38734	32082	
2933	0	35784	31018	33137	42480	32415	
2934	0	34663	36902	33357	44443	32735	
2935	0	32985	42109	33415	39239	32857	
2936	0	31926	45404	33598	32790	32717	
2937	0	31492	45394	33467	26118	33222	
2938	0	31670	40967	33391	21645	32892	
2939	0	31474	35373	32914	16684	32637	
2940	0	31782	28888	32273	18774	33509	
2941	0	32064	24131	32351	25077	33702	
2942	0	32608	21813	32775	27956	32499	
2943	0	33368	21599	32903	32285	32257	
2944	0	34589	25634	32175	35942	32898	
2945	0	35666	32174	32176	42684	32097	
2946	0	36080	39664	32538	48834	31776	
2947	0	35418	45017	32860	53179	32600	
2948	0	34650	46023	33063	51962	32713	
2949	0	33163	42576	33009	45491	32364	
2950	0	31602	36359	33041	36577	33149	
2951	0	30933	28877	33202	23405	33193	
2952	0	31016	22559	33154	14465	32834	
2953	0	31785	19319	33047	17010	32539	
2954	0	32360	18361	33049	23747	33101	
2955	0	31941	19777	32630	35035	32815	
2956	0	31642	23944	32955	47389	32237	
2957	0	31936	30226	33136	49095	33645	
2958	0	31537	36746	32910	38436	33210	
2959	0	30752	42484	32578	28408	31297	
2960	0	30921	44899	32595	20022	32152	
2961	0	31337	44675	32391	18779	33514	
2962	0	32263	40967	32807	24265	33633	
2963	0	33684	35168	32503	30589	33947	
2964	0	35312	29900	31980	34640	34086	
2965	0	37383	26853	31939	35433	33651	
2966	0	38096	25953	32197	36228	33550	
2967	0	37134	27845	32231	36939	33117	
2968	0	35176	31785	32655	36390	34973	
2969	0	32466	35264	32168	33454	36188	
2970	0	29988	36729	31986	30232	35371	
2971	0	28072	37028	32981	31056	27492	
2972	0	26488	35789	33426	28709	24493	
2973	0	27527	34392	33608	28952	28352	
2974	0	30760	32324	33381	28381	33453	
2975	0	33774	30331	32717	26146	34031	
2976	0	35801	28659	32446	26512	34899	
2977	0	36417	29958	33008	30481	35405	
2978	0	35912	32969	33658	42322	33078	
2979	0	35432	36962	33906	50233	33078	
2980	0	34779	41320	34091	51239	32011	
2981	0	33244	43335	33899	41472	29069	
2982	0	30440	41272	33614	30625	31031	
2983	0	28498	35352	33577	25641	31485	
2984	0	28420	28141	32807	24445	33593	
2985	0	30162	22645	31756	26314	33873	
2986	0	32297	20069	31119	26673	33258	
2987	0	35072	20799	30727	26404	33900	
2988	0	36792	23043	30629	28189	33981	
2989	0	36125	27813	30809	26969	33789	
2990	0	34738	36224	31872	27513	32473	
2991	0	33211	43302	32903	29097	31952	
2992	0	31036	46272	33936	33634	33717	
2993	0	30248	45333	33964	42592	33886	
2994	0	30937	41270	33320	49791	33614	
2995	0	31290	37459	33013	51517	33863	
2996	0	32368	33698	32709	41888	31069	
2997	0	32988	28745	32760	28863	30604	
2998	0	33030	24334	33109	17356	33438	
2999	0	32544	21792	33641	12622	33702	
3000	0	32652	19919	33984	13729	34133	
3001	0	32976	20042	33481	24626	34130	
3002	0	34002	23616	32993	36148	33488	
3003	0	35408	28898	32163	46010	33188	
3004	0	36224	32952	31740	51372	31954	
3005	0	35648	36987	31079	48919	30668	
3006	0	34924	41523	30775	39184	32485	
3007	0	34230	43143	32353	27570	31009	
3008	0	33112	42418	33890	22290	29929	
3009	0	32018	39443	33614	27707	30681	
3010	0	32377	34510	33125	37367	32941	
3011	0	32962	28460	33300	43874	32546	
3012	0	32930	25058	33878	45392	30551	
3013	0	32256	25907	33829	39468	32647	
3014	0	30874	29774	33486	27133	35079	
3015	0	30010	33572	32545	18638	34932	
3016	0	29505	35183	31827	20344	33740	
3017	0	29319	36756	31683	22535	32989	
3018	0	29318	38781	31846	25501	33720	
3019	0	30058	38481	32065	31751	33507	
3020	0	31376	36386	32549	37068	33751	
3021	0	33015	33177	32890	41904	34119	
3022	0	34060	28576	33021	46850	33466	
3023	0	34339	25095	33424	44672	34039	
3024	0	33897	23664	33249	37616	35951	
3025	0	33799	23784	33218	29793	34237	
3026	0	33837	25849	33631	22785	31565	
3027	0	33048	29817	33324	22244	29571	
3028	0	32460	34113	32529	27387	30727	
3029	0	32562	38730	32463	33877	28869	
3030	0	32839	41823	32801	38308	31934	
3031	0	34295	43035	32752	37589	32071	
3032	0	34738	40717	32881	31886	32172	
3033	0	33844	35864	32601	25553	34275	
3034	0	32713	32837	32853	20282	35695	
3035	0	31978	30689	33000	20757	34297	
3036	0	31663	30314	33017	23110	31525	
3037	0	31220	32034	33231	31570	31503	
3038	0	32066	33565	32981	43840	30525	
3039	0	33392	32371	32775	50676	32214	
3040	0	33731	31085	32569	48199	34290	
3041	0	33323	30346	32791	41234	34751	
3042	0	33187	30554	32704	33365	36087	
3043	0	32208	31860	32647	26911	36072	
3044	0	31224	34306	32815	28244	35967	
3045	0	30998	34511	32600	30713	35887	
3046	0	31498	33922	32241	31613	36327	
3047	0	32219	32572	31912	27732	28768	
3048	0	33071	30717	32479	21178	27782	
3049	0	33486	28877	32702	20599	30498	
3050	0	34311	26791	32545	25259	31130	
3051	0	35176	26288	32250	33853	32116	
3052	0	34548	28002	32801	40256	30074	
3053	0	33076	31155	33279	44211	28929	
3054	0	31960	35673	33530	46072	32773	
3055	0	31146	40979	33586	48079	34653	
3056	0	31632	43282	33620	42050	32469	
3057	0	32996	41049	33569	35291	31518	
3058	0	35291	36642	32099	27852	30317	
3059	0	37280	34306	30329	22018	32466	
3060	0	38269	35117	29914	22316	33969	
3061	0	37936	36678	30499	25446	34292	
3062	0	35626	38919	31835	31208	34400	
3063	0	32188	41436	33597	36219	34105	
3064	0	28192	40429	34330	40162	34226	
3065	0	25669	36320	34214	41914	33446	
3066	0	24826	28971	33119	39549	33170	
3067	0	25784	21392	32645	35621	33073	
3068	0	27864	16758	32606	27048	33576	
3069	0	30869	15682	33036	18585	33272	
3070	0	32448	17605	33734	16632	33182	
3071	0	33504	21569	33715	17993	32127	
3072	0	33320	25303	34047	19704	32187	
3073	0	33761	28931	33061	27278	32668	
3074	0	34588	32548	31077	37312	32979	
3075	0	35762	34354	30999	38130	32988	
3076	0	37006	35473	31666	38983	31936	
3077	0	38029	36880	32899	39087	32002	
3078	0	37852	39519	32767	41450	32495	
3079	0	37509	39872	33181	40034	32602	
3080	0	37158	37853	33561	37547	33610	
3081	0	36587	33101	33124	40205	33052	
3082	0	35824	29441	32493	41798	32483	
3083	0	33930	29174	32237	38947	33427	
3084	0	31652	31150	32802	35683	33429	
3085	0	30150	33915	33974	38100	34374	
3086	0	28989	38045	34187	40756	32600	
3087	0	28580	41920	33030	38200	30624	
3088	0	28090	43819	32076	30930	32746	
3089	0	28199	43901	31155	25656	33490	
3090	0	29448	40018	31314	23013	33483	
3091	0	30802	33481	32000	18228	33227	
3092	0	32442	26457	32773	16472	33408	
3093	0	33735	22466	33397	20073	32597	
3094	0	34208	22390	32911	28000	30663	
3095	0	34472	24212	32866	35732	32597	
3096	0	34188	28116	32405	39942	33099	
3097	0	33663	33334	33081	40284	31870	
3098	0	33368	37824	33655	37683	30647	
3099	0	32850	41539	33737	34938	31661	
3100	0	31588	44328	33701	35143	32977	
3101	0	29622	43936	33606	36002	33615	
3102	0	27865	39205	33376	32832	32521	
3103	0	27525	31440	32939	31482	33076	
3104	0	28487	24316	33018	32242	33283	
3105	0	30138	19082	32908	29267	33926	
3106	0	33344	16137	32599	28206	33890	
3107	0	37086	16351	32608	29482	33981	
3108	0	38970	17948	32506	32342	34823	
3109	0	38979	20487	32511	34929	34211	
3110	0	36864	26503	32681	35604	29936	
3111	0	34354	33272	32706	34150	31733	
3112	0	32608	38976	32958	34208	32568	
3113	0	31306	44260	33264	28084	33202	
3114	0	31441	49664	33238	27666	33263	
3115	0	32152	51782	33212	32613	33308	
3116	0	32104	51618	32871	37263	33198	
3117	0	32210	50068	32826	41059	33792	
3118	0	32625	46466	32058	43555	33503	
3119	0	31732	40676	32835	38389	32676	
3120	0	31309	34077	33252	28750	32216	
3121	0	31836	27311	33048	23088	32837	
3122	0	32341	22255	33047	18539	32732	
3123	0	31750	19078	32711	25168	32348	
3124	0	30424	16077	32744	35381	32978	
3125	0	30157	15250	32853	41592	32981	
3126	0	31686	17373	31941	38019	32552	
3127	0	33636	21753	31044	34351	32707	
3128	0	34936	26638	31325	35112	32320	
3129	0	36402	30471	32225	34043	33259	
3130	0	36784	33464	31963	34201	32367	
3131	0	37196	36642	31325	32880	32676	
3132	0	37330	41240	31287	31993	32951	
3133	0	37473	43772	32915	31627	33644	
3134	0	35754	46456	34354	33345	32535	
3135	0	34322	48234	34437	34562	33045	
3136	0	33467	47431	33902	30409	32084	
3137	0	32364	43874	32609	25423	33957	
3138	0	30318	38588	32655	24245	33740	
3139	0	28322	33410	33299	28098	31876	
3140	0	27443	29672	32940	34686	30501	
3141	0	27042	27938	32466	41331	33820	
3142	0	28355	26166	32895	41607	35835	
3143	0	30388	26006	33200	39761	35693	
3144	0	32566	25990	33164	33671	33299	
3145	0	35216	25016	32571	30496	29723	
3146	0	36214	25030	32500	30845	30062	
3147	0	35706	25588	33124	34432	29917	
3148	0	34322	26658	33223	36620	30496	
3149	0	32981	29362	32958	34660	32707	
3150	0	30652	33849	32912	30936	33373	
3151	0	28828	36295	33170	25618	33376	
3152	0	27374	36054	33312	21004	32846	
3153	0	28397	34123	33013	21008	32937	
3154	0	31704	33178	32475	28326	33419	
3155	0	35360	33412	32208	36494	33604	
3156	0	37425	34198	32461	39027	33067	
3157	0	37632	35973	32409	35573	33520	
3158	0	36472	36553	31821	34469	34326	
3159	0	35725	35609	31028	35979	33047	
3160	0	34384	33415	31534	35495	32357	
3161	0	32711	31865	32330	34982	33472	
3162	0	31002	30172	32952	36387	35365	
3163	0	29100	28345	33627	36111	37091	
3164	0	28016	26850	33519	32824	31808	
3165	0	27865	27111	33463	31815	30727	
3166	0	28188	30083	33433	31281	31143	
3167	0	29692	34556	33183	31253	32499	
3168	0	32996	39007	32643	32645	31424	
3169	0	36414	43044	32444	28096	31980	
3170	0	38100	43361	32315	24453	32089	
