# OpenSignals Text File Format
# {"00:07:80:3B:46:63": {"sensor": ["EMG", "EMG", "EMG", "EMG", "EMG"], "device name": "00:07:80:3B:46:63", "column": ["nSeq", "DI", "CH1", "CH2", "CH3", "CH4", "CH5"], "sync interval": 2, "time": "8:50:37.5", "comments": "", "device connection": "BTH00:07:80:3B:46:63", "channels": [1, 2, 3, 4, 5], "date": "2017-4-28", "mode": 0, "digital IO": [0, 1], "firmware version": 770, "device": "biosignalsplux", "position": 0, "sampling rate": 1000, "label": ["CH1", "CH2", "CH3", "CH4", "CH5"], "resolution": [16, 16, 16, 16, 16], "special": [{}, {}, {}, {}, {}]}}
# EndOfHeader
0	0	32751	32690	32775	32670	32672	
1	0	32827	32711	32697	32677	33131	
2	0	32860	32726	32703	32498	33089	
3	0	32812	32732	32759	32263	32339	
4	0	32756	32439	32705	32147	32479	
5	0	32744	32655	32749	32275	33101	
6	0	32793	32616	32624	32455	33223	
7	0	32868	32665	32633	32795	32691	
8	0	32766	32827	32731	33275	33017	
9	0	32804	32743	32691	33347	32497	
10	0	32736	32679	32663	33774	32615	
11	0	32816	32575	32691	33895	33114	
12	0	32762	32739	32647	33574	32789	
13	0	32726	32711	32668	32769	32733	
14	0	32781	32673	32583	33363	32883	
15	0	32775	32682	32627	34082	32895	
16	0	32745	32491	32668	33501	32899	
17	0	32837	32614	32609	32957	32907	
18	0	32786	32619	32589	32495	32688	
19	0	32774	32640	32602	31839	33011	
20	0	32795	32626	32671	31237	32889	
21	0	32798	32567	32611	30829	32770	
22	0	32841	32699	32647	31454	33055	
23	0	32747	32807	32685	32579	32945	
24	0	32824	32603	32698	33311	32711	
25	0	32775	32709	32665	34334	32921	
26	0	32839	32757	32583	35391	32763	
27	0	32793	32581	32547	34475	33010	
28	0	32853	32707	32594	33159	32873	
29	0	32868	32635	32551	32461	32962	
30	0	32774	32625	32661	32263	32967	
31	0	32775	32647	32647	32111	32741	
32	0	32789	32503	32688	32374	33023	
33	0	32785	32718	32719	32946	32827	
34	0	32758	32687	32667	32913	33095	
35	0	32807	32406	32671	32703	32671	
36	0	32884	32481	32637	32346	32805	
37	0	32837	32738	32691	32431	32615	
38	0	32676	32702	32667	32441	33076	
39	0	32702	32663	32723	32250	32879	
40	0	32706	32583	32839	32051	32767	
41	0	32720	32735	32829	32225	32683	
42	0	32736	32723	32775	32517	32959	
43	0	32789	32519	32775	32731	33101	
44	0	32747	32641	32769	32795	32819	
45	0	32762	32487	32775	32662	32873	
46	0	32711	32664	32813	32773	32997	
47	0	32839	32775	32803	32835	32869	
48	0	32985	32695	32741	32646	32797	
49	0	32902	32759	32627	32623	32403	
50	0	32885	32658	32695	32679	32747	
51	0	32873	32667	32705	32677	33183	
52	0	32801	32559	32736	32736	33005	
53	0	32701	32793	32711	32839	32751	
54	0	32813	32825	32675	32955	32387	
55	0	32950	32681	32576	32996	32797	
56	0	33039	32719	32520	32927	32775	
57	0	32968	32559	32519	33107	32991	
58	0	32944	32697	32536	33431	32671	
59	0	32891	32807	32551	33479	33007	
60	0	32848	32619	32519	33825	33005	
61	0	32967	32690	32531	33101	33026	
62	0	32959	32539	32505	32323	33065	
63	0	33034	32523	32485	32374	32731	
64	0	33078	32659	32413	32621	33129	
65	0	32989	32651	32519	33053	32983	
66	0	32922	32659	32485	32879	33011	
67	0	32941	32531	32531	32853	32627	
68	0	32900	32639	32539	32679	32765	
69	0	32900	32726	32627	32231	32629	
70	0	32891	32719	32701	31728	32613	
71	0	32864	32775	32688	31897	32975	
72	0	32851	32533	32729	32746	32591	
73	0	32635	32621	32839	33091	32493	
74	0	32514	32629	32857	32775	32687	
75	0	32443	32381	32869	32354	32868	
76	0	32364	32463	32884	32423	32671	
77	0	32313	32386	32932	33060	32863	
78	0	32248	32619	32903	33479	32705	
79	0	32251	32655	32929	33787	33023	
80	0	32263	32423	32951	34228	32839	
81	0	32293	32603	32853	35303	32790	
82	0	32342	32695	32795	34231	32967	
83	0	32410	32925	32883	32071	32912	
84	0	32367	32887	32886	31505	32813	
85	0	32412	32775	32911	31901	33056	
86	0	32530	32724	32859	32351	32819	
87	0	32573	32617	32801	32493	33169	
88	0	32647	32749	32773	32461	32731	
89	0	32708	32611	32801	32391	32621	
90	0	32768	32717	32748	32081	32931	
91	0	32810	32717	32703	32114	32747	
92	0	32837	32615	32623	32005	33171	
93	0	32884	32664	32687	32243	32935	
94	0	32871	32761	32673	32639	32862	
95	0	32936	32853	32701	32639	32947	
96	0	33034	32725	32661	32741	32357	
97	0	33069	32839	32666	32807	32489	
98	0	33124	32599	32614	32659	32871	
99	0	33048	32645	32621	33390	32821	
100	0	32907	32695	32569	33357	32881	
101	0	32928	32626	32583	33121	32801	
102	0	32916	32675	32537	33037	33101	
103	0	32967	32417	32571	32727	33133	
104	0	32933	32478	32543	32703	33159	
105	0	32881	32567	32559	33031	32909	
106	0	32839	32757	32599	33263	32790	
107	0	32829	32755	32605	32289	32831	
108	0	32770	32527	32551	31972	32931	
109	0	32824	32588	32551	32115	32659	
110	0	32775	32567	32647	32301	32985	
111	0	32739	32710	32612	33085	32895	
112	0	32769	32691	32573	33731	33095	
113	0	32724	32535	32603	33301	32839	
114	0	32709	32535	32655	33003	32793	
115	0	32758	32503	32658	32747	32759	
116	0	32723	32753	32719	32303	32813	
117	0	32784	32701	32694	33089	32853	
118	0	32766	32746	32739	32999	32930	
119	0	32846	32643	32687	32815	33007	
120	0	32839	32545	32647	32989	32660	
121	0	32892	32643	32641	33735	33015	
122	0	32873	32545	32680	33407	32813	
123	0	32868	32511	32734	33257	33003	
124	0	32825	32498	32711	33857	32570	
125	0	32857	32647	32717	34247	32853	
126	0	32882	32895	32763	32809	32933	
127	0	32850	32865	32765	31983	32591	
128	0	32744	32908	32831	31857	33075	
129	0	32766	32653	32751	32037	32871	
130	0	32729	32687	32759	32241	33005	
131	0	32687	32695	32768	31894	32582	
132	0	32683	32717	32767	31665	32947	
133	0	32690	32567	32679	31815	33151	
134	0	32690	32454	32623	31965	32523	
135	0	32663	32651	32639	32127	32997	
136	0	32812	32557	32615	32317	32896	
137	0	32753	32706	32547	32717	33082	
138	0	32785	32683	32575	33455	32775	
139	0	32797	32491	32604	34307	32720	
140	0	32833	32688	32687	34003	32797	
141	0	32886	32731	32694	33382	32863	
142	0	32800	32555	32775	32579	32731	
143	0	32846	32630	32741	31894	33332	
144	0	32869	32766	32763	32423	32854	
145	0	32816	32614	32761	32101	32188	
146	0	32861	32610	32739	32088	32615	
147	0	32800	32811	32722	33021	32928	
148	0	32752	32615	32722	33411	32839	
149	0	32746	32647	32676	33555	33158	
150	0	32799	32576	32719	33915	33195	
151	0	32812	32647	32707	33195	32958	
152	0	32789	32723	32743	32631	33012	
153	0	32765	32475	32705	32455	32699	
154	0	32761	32605	32679	32382	32721	
155	0	32765	32511	32757	32210	32818	
156	0	32729	32697	32743	32167	32659	
157	0	32733	32733	32791	32083	32861	
158	0	32753	32607	32821	32019	32743	
159	0	32768	32691	32793	32327	33025	
160	0	32771	32615	32775	33305	32775	
161	0	32694	32765	32775	33669	32699	
162	0	32671	32533	32742	33223	32839	
163	0	32741	32595	32775	33771	32887	
164	0	32804	32571	32771	33575	33091	
165	0	32797	32692	32801	33399	33151	
166	0	32878	32699	32765	32882	32775	
167	0	32823	32741	32824	32591	32807	
168	0	32798	32662	32719	32167	33122	
169	0	32850	32500	32711	32023	32845	
170	0	32837	32703	32733	32049	32775	
171	0	32788	32793	32746	32850	32751	
172	0	32752	32679	32725	34023	32727	
173	0	32775	32619	32743	33026	33017	
174	0	32755	32521	32677	32437	33037	
175	0	32760	32574	32719	32542	32425	
176	0	32797	32513	32747	32579	32643	
177	0	32770	32599	32772	32235	32775	
178	0	32760	32725	32690	32135	32627	
179	0	32728	32630	32639	32199	32743	
180	0	32747	32775	32647	32287	32851	
181	0	32775	32766	32696	32637	32873	
182	0	32729	32623	32803	32498	32629	
183	0	32768	32807	32722	33111	33029	
184	0	32834	32749	32731	34458	32861	
185	0	32792	32519	32707	34752	32709	
186	0	32853	32587	32699	34147	32719	
187	0	32837	32467	32703	34013	32915	
188	0	32794	32499	32687	33047	32959	
189	0	32748	32451	32743	31906	32829	
190	0	32760	32579	32739	31482	32915	
191	0	32816	32699	32717	31698	32982	
192	0	32848	32647	32767	31839	32773	
193	0	32775	32745	32729	32321	32993	
194	0	32785	32679	32797	32452	33156	
195	0	32837	32687	32817	33186	32807	
196	0	32724	32559	32747	33219	32765	
197	0	32722	32643	32726	33495	32745	
198	0	32666	32647	32751	34502	32665	
199	0	32667	32694	32659	34458	32657	
200	0	32824	32775	32583	33034	32731	
201	0	32856	32679	32565	31963	33074	
202	0	32909	32653	32642	31542	33114	
203	0	32839	32626	32647	31527	32605	
204	0	32722	32829	32742	31415	32903	
205	0	32642	32771	32770	31593	33195	
206	0	32605	32495	32815	31943	32659	
207	0	32737	32551	32775	31527	32861	
208	0	32839	32519	32770	31441	32913	
209	0	32805	32655	32775	31939	32823	
210	0	32765	32667	32745	32675	32803	
211	0	32770	32498	32775	33095	32739	
212	0	32843	32595	32839	33720	32775	
213	0	32850	32594	32757	34422	32717	
214	0	32853	32711	32764	36071	32561	
215	0	32775	32644	32819	36002	32963	
216	0	32790	32789	32737	33508	32941	
217	0	32848	32827	32765	31462	32749	
218	0	32853	32722	32747	30855	33119	
219	0	32867	32755	32793	31195	32839	
220	0	32816	32547	32775	31953	32655	
221	0	32737	32589	32741	32559	32945	
222	0	32751	32622	32738	33147	32709	
223	0	32793	32634	32775	33397	32775	
224	0	32749	32638	32747	33743	33199	
225	0	32688	32463	32711	33688	32751	
226	0	32809	32567	32738	32706	32704	
227	0	32868	32557	32719	32341	33257	
228	0	32762	32745	32647	32401	33087	
229	0	32733	32791	32739	32557	33107	
230	0	32770	32621	32715	32647	33059	
231	0	32850	32797	32851	32384	32608	
232	0	32775	32633	32739	31785	32675	
233	0	32763	32743	32831	31367	32475	
234	0	32773	32662	32807	31958	32809	
235	0	32872	32609	32747	33421	32763	
236	0	32855	32669	32759	34445	32797	
237	0	32789	32609	32802	33517	33051	
238	0	32720	32733	32843	32495	32967	
239	0	32713	32738	32813	33154	32795	
240	0	32793	32609	32751	34600	32575	
241	0	32839	32599	32727	34271	32623	
242	0	32817	32597	32791	33136	33061	
243	0	32815	32665	32744	32400	32875	
244	0	32812	32679	32775	32325	32717	
245	0	32743	32429	32822	32143	33073	
246	0	32748	32570	32803	32359	33014	
247	0	32737	32484	32818	32141	32845	
248	0	32772	32658	32809	31373	32979	
249	0	32743	32662	32752	31493	32807	
250	0	32698	32509	32748	32579	32675	
251	0	32787	32683	32831	33141	32673	
252	0	32813	32883	32775	33422	32869	
253	0	32768	32919	32805	33469	32815	
254	0	32801	32923	32831	34599	32711	
255	0	32746	32702	32703	34701	32728	
256	0	32713	32725	32543	33055	33053	
257	0	32740	32657	32566	32399	32790	
258	0	32763	32623	32653	33389	32639	
259	0	32871	32593	32765	32849	32775	
260	0	32866	32419	32871	32438	32931	
261	0	32948	32377	32831	31922	32728	
262	0	32935	32345	32795	31471	33223	
263	0	32864	32591	32717	31443	32903	
264	0	32726	32453	32688	32187	32721	
265	0	32642	32630	32701	33195	33053	
266	0	32637	32431	32578	33702	33057	
267	0	32653	32671	32551	33491	32729	
268	0	32638	32543	32543	32839	32775	
269	0	32732	32704	32459	33131	32853	
270	0	32693	32623	32453	32879	33159	
271	0	32736	32763	32519	32031	32849	
272	0	32768	32623	32603	31663	32774	
273	0	32758	32721	32688	31733	32695	
274	0	32775	32738	32711	32195	32880	
275	0	32688	32603	32724	32397	33037	
276	0	32770	32675	32711	32683	32863	
277	0	32628	32497	32679	32165	32579	
278	0	32711	32637	32560	31999	33013	
279	0	32757	32495	32455	32391	33043	
280	0	32753	32615	32487	32877	32835	
281	0	32656	32820	32594	33655	33271	
282	0	32795	32741	32581	34784	32917	
283	0	32775	32801	32644	34469	32797	
284	0	32813	32757	32751	33494	32592	
285	0	32797	32774	32877	33718	32955	
286	0	32813	32536	32775	33791	32611	
287	0	32765	32583	32877	33415	32737	
288	0	32791	32685	32919	32835	32709	
289	0	32774	32583	32850	32573	32658	
290	0	32786	32583	32853	32719	32534	
291	0	32741	32470	32824	32263	32973	
292	0	32760	32722	32833	31919	33259	
293	0	32771	32771	32839	31698	32807	
294	0	32793	32768	32831	31187	32611	
295	0	32873	32775	32809	31595	32880	
296	0	32912	32514	32793	32541	32813	
297	0	32975	32633	32669	33111	32637	
298	0	32854	32717	32597	32973	32775	
299	0	32747	32711	32532	33391	33043	
300	0	32722	32762	32533	32837	32826	
301	0	32686	32575	32525	32545	32607	
302	0	32626	32745	32466	32709	32775	
303	0	32719	32565	32475	33185	32879	
304	0	32757	32757	32587	33381	32711	
305	0	32821	32807	32815	32899	32925	
306	0	32802	32757	32943	32539	32793	
307	0	32725	32759	32965	33483	32875	
308	0	32741	32697	32923	34211	32587	
309	0	32725	32801	32703	33605	32898	
310	0	32734	32775	32743	33157	33049	
311	0	32774	32698	32775	31939	32983	
312	0	32792	32697	32811	31840	32699	
313	0	32809	32659	32773	31831	33158	
314	0	32807	32651	32455	32279	33057	
315	0	32797	32639	32337	32903	32847	
316	0	32831	32505	32630	33735	32999	
317	0	32797	32665	32717	34187	32711	
318	0	32818	32470	32767	33151	32919	
319	0	32820	32683	32775	32229	33005	
320	0	32797	32641	32805	32135	32877	
321	0	32676	32630	32775	32301	32991	
322	0	32741	32720	32685	32405	32885	
323	0	32765	32511	32663	32551	32692	
324	0	32775	32593	32721	32805	32987	
325	0	32796	32479	32873	32893	32614	
326	0	32820	32569	32698	32708	32602	
327	0	32792	32548	32691	32563	32903	
328	0	32775	32760	32693	32605	33143	
329	0	32850	32734	32703	32465	33041	
330	0	32829	32691	32707	32598	32242	
331	0	32755	32735	32619	32845	32695	
332	0	32795	32657	32628	32895	32725	
333	0	32805	32775	32613	32929	33307	
334	0	32734	32477	32647	33023	32759	
335	0	32745	32583	32603	33020	32479	
336	0	32760	32573	32583	32914	32879	
337	0	32751	32707	32615	32765	32887	
338	0	32743	32695	32559	32659	33193	
339	0	32842	32455	32631	32656	32903	
340	0	32795	32655	32647	32699	33035	
341	0	32825	32723	32639	32690	32873	
342	0	32795	32773	32655	32693	33037	
343	0	32771	32769	32567	32654	32837	
344	0	32881	32615	32593	32543	33177	
345	0	32800	32698	32587	32451	32933	
346	0	32775	32551	32550	32057	32563	
347	0	32722	32749	32563	32167	33031	
348	0	32772	32662	32615	32339	32871	
349	0	32770	32775	32603	32685	32775	
350	0	32741	32829	32688	33095	32461	
351	0	32724	32733	32775	33567	32949	
352	0	32845	32711	32847	33831	33089	
353	0	32730	32672	32775	33410	32871	
354	0	32718	32731	32713	33069	33115	
355	0	32775	32725	32797	33287	32967	
356	0	32758	32837	32805	33593	32873	
357	0	32869	32658	32803	34019	32999	
358	0	32933	32703	32757	34635	32749	
359	0	32918	32559	32847	33926	32583	
360	0	32843	32541	32711	33147	33019	
361	0	32800	32403	32655	32671	33189	
362	0	32873	32599	32603	31899	32758	
363	0	32801	32739	32607	31154	32523	
364	0	32761	32759	32667	31265	32386	
365	0	32775	32801	32833	32033	32881	
366	0	32722	32631	32893	32007	32805	
367	0	32748	32641	32821	33211	32567	
368	0	32784	32428	32839	33190	32950	
369	0	32917	32581	32846	32631	32899	
370	0	32818	32442	32869	32989	32699	
371	0	32798	32626	32839	33345	32839	
372	0	32842	32601	32661	32915	32666	
373	0	32739	32743	32549	32351	33115	
374	0	32733	32749	32475	31687	32683	
375	0	32731	32767	32565	31567	32709	
376	0	32717	32726	32595	32029	32902	
377	0	32668	32647	32559	32775	32967	
378	0	32728	32655	32675	34352	32797	
379	0	32760	32404	32667	34237	33021	
380	0	32688	32515	32709	33109	32311	
381	0	32647	32463	32729	32630	32770	
382	0	32775	32655	32749	32603	32813	
383	0	32771	32775	32759	32705	33109	
384	0	32805	32661	32775	32314	32689	
385	0	32755	32733	32793	32285	32801	
386	0	32725	32835	32753	32391	32953	
387	0	32774	32702	32701	32230	32802	
388	0	32740	32623	32705	31909	33089	
389	0	32806	32397	32753	31797	32908	
390	0	32839	32601	32723	31634	32559	
391	0	32886	32543	32793	32217	32639	
392	0	32824	32369	32716	32913	32865	
393	0	32722	32643	32676	33223	32655	
394	0	32692	32817	32640	34123	32905	
395	0	32658	32805	32701	36511	32742	
396	0	32767	32863	32639	35627	32519	
397	0	32752	32870	32671	34551	32775	
398	0	32793	32733	32659	33179	33051	
399	0	32775	32699	32729	32283	32887	
400	0	32813	32861	32682	31853	32711	
401	0	32893	32706	32670	31821	32959	
402	0	32802	32679	32640	32048	32977	
403	0	32785	32537	32485	32225	32991	
404	0	32705	32775	32634	32248	32673	
405	0	32891	32658	32703	32355	32897	
406	0	32878	32391	32751	32475	32959	
407	0	32805	32547	32743	32581	32975	
408	0	32723	32599	32739	32639	33202	
409	0	32720	32723	32719	32510	32639	
410	0	32709	32656	32775	32530	32407	
411	0	32786	32506	32791	32595	32827	
412	0	32775	32627	32703	32647	32871	
413	0	32848	32690	32685	32745	32965	
414	0	32792	32594	32635	32825	33015	
415	0	32784	32630	32634	32743	32839	
416	0	32754	32539	32635	32694	32890	
417	0	32796	32623	32635	32417	32651	
418	0	32728	32515	32711	32315	33083	
419	0	32735	32583	32623	32432	33163	
420	0	32764	32541	32582	32395	32887	
421	0	32857	32582	32662	32471	32762	
422	0	32859	32623	32625	32759	32543	
423	0	32794	32795	32623	33153	33052	
424	0	32849	32775	32621	33711	32727	
425	0	32843	32719	32704	34275	32495	
426	0	32760	32743	32633	33614	32930	
427	0	32710	32647	32559	33735	32875	
428	0	32731	32807	32646	34333	32928	
429	0	32760	32643	32643	33007	32839	
430	0	32684	32699	32641	31791	32775	
431	0	32793	32542	32629	31628	33019	
432	0	32752	32655	32687	31683	32933	
433	0	32734	32504	32583	31511	32569	
434	0	32718	32663	32611	31775	32576	
435	0	32805	32575	32711	32165	32822	
436	0	32800	32677	32769	33783	33067	
437	0	32890	32739	32735	34392	32669	
438	0	32792	32667	32822	33877	32849	
439	0	32760	32745	32775	32950	32809	
440	0	32809	32667	32775	31957	33151	
441	0	32824	32743	32729	31418	32631	
442	0	32805	32483	32801	31611	32927	
443	0	32680	32543	32827	32407	32747	
444	0	32756	32711	32775	33287	33005	
445	0	32808	32674	32798	34086	32804	
446	0	32813	32647	32709	35001	32195	
447	0	32733	32519	32725	34311	32807	
448	0	32773	32688	32679	33499	32659	
449	0	32800	32809	32687	32767	32647	
450	0	32876	32647	32711	31873	32771	
451	0	32818	32759	32672	32147	32787	
452	0	32762	32739	32703	32195	33008	
453	0	32832	32630	32657	32215	32839	
454	0	32839	32647	32683	32570	33007	
455	0	32775	32455	32739	32453	32687	
456	0	32841	32647	32656	32655	32823	
457	0	32750	32749	32698	33515	32838	
458	0	32754	32643	32743	32599	32711	
459	0	32717	32699	32761	31635	32931	
460	0	32711	32626	32756	31535	33159	
461	0	32756	32739	32681	32043	33085	
462	0	32791	32629	32685	32719	32839	
463	0	32722	32459	32719	33555	32674	
464	0	32683	32583	32702	33849	32996	
465	0	32755	32711	32807	34215	32931	
466	0	32758	32729	32805	33522	33016	
467	0	32884	32775	32813	31572	33071	
468	0	32834	32608	32717	30819	32731	
469	0	32823	32667	32656	31385	33051	
470	0	32775	32593	32603	32770	32731	
471	0	32787	32704	32631	33423	32725	
472	0	32758	32799	32655	34346	32893	
473	0	32820	32704	32615	34654	33049	
474	0	32803	32667	32634	34641	33071	
475	0	32928	32448	32635	34171	32675	
476	0	32880	32499	32603	33319	32729	
477	0	32869	32491	32737	32963	32925	
478	0	32765	32657	32717	32157	32925	
479	0	32797	32567	32775	32031	33047	
480	0	32743	32679	32751	31955	32839	
481	0	32768	32711	32697	32358	32775	
482	0	32760	32631	32720	33095	32621	
483	0	32596	32735	32720	33218	32735	
484	0	32705	32571	32774	32470	32639	
485	0	32726	32759	32833	31379	32721	
486	0	32790	32577	32795	31239	33235	
487	0	32774	32765	32825	32009	33049	
488	0	32827	32637	32812	32519	33042	
489	0	32838	32497	32729	32903	32919	
490	0	32784	32611	32771	33243	32854	
491	0	32775	32529	32827	33193	32943	
492	0	32709	32667	32855	32947	32951	
493	0	32793	32755	32799	32482	32593	
494	0	32761	32711	32771	31999	32735	
495	0	32741	32722	32823	31963	32775	
496	0	32787	32491	32819	32263	32739	
497	0	32800	32722	32845	32690	32867	
498	0	32809	32617	32803	32812	32894	
499	0	32824	32583	32741	33127	32831	
500	0	32857	32695	32796	33725	32937	
501	0	32837	32641	32805	34107	32883	
502	0	32793	32695	32706	33577	32877	
503	0	32745	32603	32741	32852	33083	
504	0	32746	32659	32795	32573	32663	
505	0	32809	32775	32775	33062	32751	
506	0	32859	32775	32769	33235	32978	
507	0	32848	32733	32717	32793	32731	
508	0	32815	32615	32745	32689	32762	
509	0	32869	32613	32769	32526	32699	
510	0	32818	32437	32726	32578	32863	
511	0	32845	32523	32745	32543	32865	
512	0	32888	32542	32759	32543	32381	
513	0	32786	32681	32691	32557	32918	
514	0	32767	32803	32760	32685	32559	
515	0	32741	32765	32770	32711	32821	
516	0	32792	32741	32758	32657	32673	
517	0	32700	32729	32775	31979	32909	
518	0	32805	32765	32750	31941	32775	
519	0	32797	32547	32775	32103	32577	
520	0	32704	32725	32775	32477	32871	
521	0	32807	32761	32799	32882	32933	
522	0	32775	32504	32775	33466	32813	
523	0	32677	32653	32797	33867	33093	
524	0	32724	32527	32775	34539	32967	
525	0	32752	32754	32755	34277	32663	
526	0	32706	32761	32770	32450	32967	
527	0	32736	32473	32722	31923	32888	
528	0	32809	32470	32717	32109	32838	
529	0	32786	32519	32775	33058	33063	
530	0	32732	32827	32751	33051	32971	
531	0	32753	32893	32829	32963	32958	
532	0	32824	32861	32805	32021	32895	
533	0	32775	32813	32833	31550	32959	
534	0	32812	32541	32799	32421	33101	
535	0	32809	32653	32762	33117	33197	
536	0	32782	32571	32809	35091	32661	
537	0	32856	32723	32755	35333	32447	
538	0	32952	32759	32761	35169	32967	
539	0	32857	32672	32775	32747	32797	
540	0	32760	32764	32787	30962	32755	
541	0	32830	32547	32775	30669	32764	
542	0	32902	32630	32829	30608	32971	
543	0	32916	32391	32801	31041	32857	
544	0	32862	32495	32627	32251	32954	
545	0	32824	32393	32671	33785	32797	
546	0	32793	32525	32743	34847	33021	
547	0	32775	32390	32674	34515	32863	
548	0	32882	32591	32721	34422	32839	
549	0	32711	32606	32607	32533	32483	
550	0	32688	32775	32535	31823	32562	
551	0	32642	32711	32633	31779	32569	
552	0	32643	32665	32742	31623	32997	
553	0	32630	32723	32786	31601	32875	
554	0	32710	32678	32677	32031	33056	
555	0	32729	32626	32735	32549	32775	
556	0	32662	32559	32775	32583	32803	
557	0	32675	32691	32697	32237	32547	
558	0	32594	32831	32647	31990	32882	
559	0	32571	32733	32677	32421	32803	
560	0	32668	32619	32717	32839	32937	
561	0	32804	32623	32651	32563	32937	
562	0	32863	32557	32573	32199	32967	
563	0	32826	32559	32665	33389	32531	
564	0	32787	32727	32669	35046	33159	
565	0	32656	32633	32669	34047	32533	
566	0	32613	32902	32807	32946	32801	
567	0	32674	32771	32829	32553	32960	
568	0	32751	32719	32801	33043	32859	
569	0	32805	32630	32711	33151	32658	
570	0	32719	32831	32767	32934	32807	
571	0	32761	32647	32741	33893	33055	
572	0	32795	32802	32719	34215	32896	
573	0	32845	32695	32754	33511	33157	
574	0	32765	32711	32770	32237	33555	
575	0	32809	32695	32626	32071	33091	
576	0	32833	32670	32594	32737	33018	
577	0	32813	32561	32595	32935	32919	
578	0	32745	32609	32621	32221	32323	
579	0	32752	32671	32827	31847	32165	
580	0	32786	32685	32655	31840	32327	
581	0	32813	32775	32607	32093	32677	
582	0	32807	32647	32531	31923	32599	
583	0	32828	32559	32741	32047	31989	
584	0	32824	32599	32773	32029	32263	
585	0	32839	32562	32658	32703	32635	
586	0	32966	32623	32737	33063	33093	
587	0	32994	32557	32719	32831	33133	
588	0	33065	32583	32711	32967	33194	
589	0	33014	32731	32797	32949	33147	
590	0	32862	32697	32827	32674	32911	
591	0	32793	32742	32759	32935	33083	
592	0	32744	32666	32590	33699	32954	
593	0	32681	32671	32535	33603	33087	
594	0	32660	32679	32565	33303	33157	
595	0	32668	32736	32770	32487	32825	
596	0	32557	32653	32799	32372	32921	
597	0	32680	32720	32711	32477	32611	
598	0	32752	32667	32755	32659	32965	
599	0	32715	32771	32730	32689	32833	
600	0	32800	32729	32627	32553	33028	
601	0	32793	32611	32599	32402	32903	
602	0	32871	32711	32726	32653	33223	
603	0	32812	32475	32775	32703	32487	
604	0	32704	32605	32759	32955	33032	
605	0	32695	32551	32775	33175	33151	
606	0	32749	32739	32818	33487	32731	
607	0	32711	32719	32825	33731	32515	
608	0	32798	32819	32671	33554	33199	
609	0	32848	32615	32643	32595	32963	
610	0	32859	32704	32599	31802	33091	
611	0	32850	32531	32609	31647	32775	
612	0	32732	32643	32690	31981	32775	
613	0	32707	32628	32775	32755	32677	
614	0	32693	32741	32830	33103	32761	
615	0	32811	32631	32815	33647	32755	
616	0	32895	32729	32717	34171	32793	
617	0	32940	32599	32711	33710	32857	
618	0	33006	32737	32717	34022	32959	
619	0	32858	32551	32711	33299	33077	
620	0	32821	32687	32649	32233	32549	
621	0	32692	32475	32593	31584	32795	
622	0	32852	32641	32591	32307	32670	
623	0	33037	32479	32641	32574	33151	
624	0	33230	32413	32775	32171	32869	
625	0	33277	32431	32791	32147	32605	
626	0	33150	32729	32701	32467	32647	
627	0	32940	32735	32707	32827	32628	
628	0	32786	32667	32704	33031	32696	
629	0	32528	32624	32757	33351	32903	
630	0	32345	32727	32838	32495	32861	
631	0	32210	32815	32870	32099	32873	
632	0	32136	32853	32891	32107	32787	
633	0	32034	32859	32743	32088	32839	
634	0	32254	32761	32639	32231	32765	
635	0	32304	32617	32551	32991	33055	
636	0	32517	32643	32629	33729	32831	
637	0	32654	32591	32753	33231	32983	
638	0	32812	32767	32747	33255	32795	
639	0	33022	32627	32659	33497	33069	
640	0	33125	32789	32684	32837	32903	
641	0	33088	32759	32775	32957	32983	
642	0	33160	32821	32583	33362	32829	
643	0	33135	32825	32591	33363	32487	
644	0	33142	32647	32643	32726	32694	
645	0	33101	32637	32738	32923	32487	
646	0	33147	32538	32737	32599	32899	
647	0	33178	32455	32653	31575	32765	
648	0	33160	32401	32620	31239	32958	
649	0	33125	32614	32657	31031	32697	
650	0	33086	32455	32695	31553	32949	
651	0	33050	32723	32690	33231	32869	
652	0	33025	32722	32529	34279	33131	
653	0	32998	32791	32583	34034	32967	
654	0	32952	32759	32549	33547	32895	
655	0	32932	32673	32704	34010	33519	
656	0	32923	32607	32749	34163	33043	
657	0	32812	32674	32787	33519	32724	
658	0	32693	32695	32737	33603	32159	
659	0	32596	32619	32685	33186	31529	
660	0	32521	32496	32737	32003	32406	
661	0	32327	32583	32803	31411	32999	
662	0	32242	32493	32869	31352	32822	
663	0	32250	32410	32774	31490	32896	
664	0	32223	32409	32827	32421	33287	
665	0	32114	32323	32899	33663	32927	
666	0	32152	32598	33035	34123	32707	
667	0	32349	32493	32985	34531	33143	
668	0	32583	32745	32880	33956	32867	
669	0	32726	32663	32918	33211	32977	
670	0	32738	32796	32831	31927	32765	
671	0	32742	32765	32825	31516	32423	
672	0	32653	32673	32911	31606	32567	
673	0	32545	32608	32891	31647	32321	
674	0	32572	32639	32775	31581	32989	
675	0	32551	32729	32655	31727	32945	
676	0	32622	32711	32647	32237	33119	
677	0	32682	32823	32530	32737	33061	
678	0	32756	32498	32583	32909	33146	
679	0	32933	32613	32555	33379	32967	
680	0	33211	32617	32573	33223	33127	
681	0	33276	32875	32539	33007	32891	
682	0	33247	33010	32599	33025	33159	
683	0	33252	32751	32486	32924	32945	
684	0	33101	32787	32501	32911	32976	
685	0	33030	32694	32479	33357	32921	
686	0	32873	32793	32504	34169	33051	
687	0	32749	32771	32531	33315	32927	
688	0	32609	32455	32657	32341	33201	
689	0	32770	32527	32683	32003	32787	
690	0	32963	32485	32749	32521	32911	
691	0	33012	32423	32671	33019	33241	
692	0	32943	32479	32643	33163	33280	
693	0	32920	32391	32603	33126	32647	
694	0	32775	32673	32623	33339	31995	
695	0	32576	32695	32711	32576	32611	
696	0	32576	32583	32757	31919	33620	
697	0	32485	32704	32758	31824	33659	
698	0	32508	32619	32775	32091	33625	
699	0	32605	32746	32799	32564	32735	
700	0	32632	32775	32711	32915	31291	
701	0	32703	32487	32761	33187	30723	
702	0	32792	32725	32743	32975	31058	
703	0	32774	32745	32749	32591	32359	
704	0	32816	32659	32759	32333	33026	
705	0	32935	32607	32775	32217	33280	
706	0	32933	32514	32734	32191	33434	
707	0	32863	32702	32711	32455	33375	
708	0	32846	32775	32664	32967	32979	
709	0	32816	32743	32775	33186	33286	
710	0	32839	32679	32747	33362	32975	
711	0	32800	32555	32770	33459	32999	
712	0	32838	32755	32738	34475	33104	
713	0	32910	32829	32711	34671	33529	
714	0	32865	32723	32736	33127	34124	
715	0	32833	32807	32683	31961	33595	
716	0	32713	32829	32805	31361	32775	
717	0	32845	32681	32729	32241	32263	
718	0	32848	32517	32741	32823	32223	
719	0	32877	32539	32797	33389	32191	
720	0	32869	32589	32725	33607	32321	
721	0	32775	32391	32775	32634	32663	
722	0	32813	32435	32647	32577	33151	
723	0	32818	32515	32634	33235	33083	
724	0	32877	32741	32703	32935	32847	
725	0	32896	32695	32775	32391	33117	
726	0	32775	32565	32827	32491	33009	
727	0	32704	32711	32775	33151	32998	
728	0	32588	32658	32788	33261	32861	
729	0	32591	32887	32795	32688	33003	
730	0	32691	32839	32831	32239	33139	
731	0	32759	32683	32849	31990	32751	
732	0	32809	32659	32813	32131	32659	
733	0	32805	32597	32809	32386	32863	
734	0	32751	32737	32739	32469	33021	
735	0	32752	32683	32774	32671	32627	
736	0	32770	32723	32769	32863	32567	
737	0	32665	32729	32797	33019	32913	
738	0	32715	32639	32791	33127	32941	
739	0	32784	32643	32723	32946	32691	
740	0	32749	32475	32732	32487	32627	
741	0	32775	32667	32763	32493	32593	
742	0	32757	32775	32691	32657	32771	
743	0	32775	32595	32741	33775	32967	
744	0	32832	32577	32681	34447	32955	
745	0	32808	32601	32681	32999	32493	
746	0	32845	32710	32675	32419	32967	
747	0	32806	32733	32691	32153	32886	
748	0	32836	32719	32654	31999	33199	
749	0	32835	32773	32737	32025	32850	
750	0	32879	32647	32719	32013	32682	
751	0	32704	32863	32711	31461	33071	
752	0	32645	32766	32727	31301	32627	
753	0	32718	32850	32775	31881	32926	
754	0	32765	32719	32719	32699	32947	
755	0	32753	32505	32629	33129	32829	
756	0	32793	32573	32616	33794	32827	
757	0	32831	32421	32583	34647	32665	
758	0	32775	32743	32627	35699	32891	
759	0	32785	32759	32699	35266	32551	
760	0	32870	32674	32824	33381	32903	
761	0	32852	32731	32740	31884	32941	
762	0	32972	32671	32722	31813	32825	
763	0	32921	32386	32749	32741	33080	
764	0	32788	32463	32687	33842	33200	
765	0	32708	32638	32641	33383	32675	
766	0	32768	32739	32657	32795	32961	
767	0	32789	32717	32681	32325	33255	
768	0	32714	32623	32671	31808	32922	
769	0	32667	32639	32667	32003	33147	
770	0	32754	32543	32763	32169	32489	
771	0	32720	32657	32809	32165	31904	
772	0	32740	32673	32847	32964	31880	
773	0	32846	32575	32869	32907	32466	
774	0	32801	32647	32838	32981	32874	
775	0	32717	32606	32845	33727	33073	
776	0	32671	32720	32867	34359	32988	
777	0	32755	32860	32775	33222	33113	
778	0	32749	32815	32793	32355	33165	
779	0	32761	32754	32774	31873	32871	
780	0	32748	32568	32768	32164	32997	
781	0	32760	32647	32755	32349	32861	
782	0	32722	32591	32643	32217	32961	
783	0	32738	32659	32725	32150	32733	
784	0	32715	32775	32665	32535	33210	
785	0	32753	32610	32681	32775	32642	
786	0	32729	32627	32745	32879	32867	
787	0	32748	32663	32696	32977	32679	
788	0	32739	32751	32692	33033	32805	
789	0	32711	32775	32697	33059	32775	
790	0	32755	32775	32669	32018	32655	
791	0	32727	32793	32675	31807	33151	
792	0	32736	32591	32770	31865	32881	
793	0	32768	32745	32759	31839	32793	
794	0	32774	32711	32738	32029	32696	
795	0	32740	32508	32770	33126	32553	
796	0	32727	32685	32775	33635	33005	
797	0	32752	32675	32747	33978	33031	
798	0	32809	32541	32745	35499	32787	
799	0	32883	32711	32755	34840	32943	
800	0	32815	32711	32825	33447	33045	
801	0	32845	32641	32807	32793	32886	
802	0	32732	32680	32807	32592	32875	
803	0	32770	32809	32703	32593	32951	
804	0	32784	32589	32689	32479	33105	
805	0	32797	32759	32671	32371	33055	
806	0	32839	32891	32601	31899	32891	
807	0	32837	32696	32603	31543	32455	
808	0	32797	32657	32595	31602	32799	
809	0	32772	32757	32773	31661	32867	
810	0	32711	32694	32681	32025	32767	
811	0	32775	32595	32755	32825	33081	
812	0	32768	32383	32775	34071	33185	
813	0	32767	32466	32759	34521	32797	
814	0	32832	32583	32695	33325	32719	
815	0	32811	32569	32689	32241	32429	
816	0	32730	32659	32687	32274	32903	
817	0	32741	32567	32691	32997	32696	
818	0	32791	32665	32699	32907	32865	
819	0	32812	32487	32713	32485	32797	
820	0	32857	32571	32746	32479	33075	
821	0	32829	32517	32775	32855	32539	
822	0	32775	32635	32765	33021	32967	
823	0	32757	32647	32805	33155	32663	
824	0	32765	32834	32743	32913	32621	
825	0	32740	32775	32767	32087	32658	
826	0	32723	32685	32757	31809	33017	
827	0	32770	32738	32807	31995	32689	
828	0	32738	32619	32635	32801	32795	
829	0	32722	32663	32544	33043	32695	
830	0	32818	32551	32621	32990	32827	
831	0	32821	32726	32659	33135	32785	
832	0	32766	32775	32677	34075	32659	
833	0	32662	32603	32637	34226	32867	
834	0	32711	32691	32691	32742	32815	
835	0	32662	32437	32647	31643	32707	
836	0	32640	32583	32629	32192	33013	
837	0	32632	32639	32669	32873	32775	
838	0	32717	32511	32713	32333	33111	
839	0	32722	32731	32791	32283	32839	
840	0	32738	32607	32816	33101	32683	
841	0	32754	32771	32789	33067	32827	
842	0	32797	32710	32809	32219	33169	
843	0	32909	32539	32767	32857	32967	
844	0	32904	32658	32789	33299	32863	
845	0	32796	32430	32736	32815	32895	
846	0	32865	32567	32689	32795	32597	
847	0	32892	32467	32699	32559	32879	
848	0	32830	32617	32825	33051	32847	
849	0	32794	32775	32774	34144	33058	
850	0	32813	32619	32775	35757	33042	
851	0	32718	32775	32791	35015	33159	
852	0	32709	32797	32765	33218	32647	
853	0	32752	32751	32733	32231	32807	
854	0	32658	32683	32647	32651	32775	
855	0	32672	32805	32665	32225	32867	
856	0	32716	32789	32579	31259	33191	
857	0	32788	32731	32627	31151	32891	
858	0	32787	32595	32647	31521	33183	
859	0	32753	32691	32688	31991	33001	
860	0	32749	32767	32767	32295	33001	
861	0	32792	32679	32839	32674	32857	
862	0	32813	32719	32803	32775	32703	
863	0	32806	32470	32775	32889	32839	
864	0	32827	32609	32809	32891	32551	
865	0	32853	32503	32799	32646	32579	
866	0	32706	32775	32835	32593	32551	
867	0	32723	32775	32775	32617	32855	
868	0	32672	32617	32763	32653	32869	
869	0	32620	32591	32747	32765	33223	
870	0	32711	32367	32771	32831	32711	
871	0	32865	32524	32741	32839	32799	
872	0	32807	32459	32766	32799	33033	
873	0	32822	32701	32805	32533	32694	
874	0	32669	32703	32754	32191	32621	
875	0	32681	32761	32742	32289	33013	
876	0	32774	32807	32761	32509	32799	
877	0	32870	32685	32769	32767	32409	
878	0	32843	32767	32691	33343	32793	
879	0	32775	32608	32763	33922	33167	
880	0	32716	32625	32689	34423	32930	
881	0	32757	32607	32749	34031	32727	
882	0	32821	32611	32747	33171	32697	
883	0	32904	32515	32801	31917	32861	
884	0	32922	32610	32823	31371	32671	
885	0	32812	32563	32775	31335	32939	
886	0	32698	32538	32705	31847	32923	
887	0	32642	32765	32755	32318	32667	
888	0	32626	32929	32727	32548	32775	
889	0	32827	32719	32728	34127	32913	
890	0	32835	32747	32745	35623	32868	
891	0	32840	32527	32749	35038	32754	
892	0	32731	32770	32763	32953	32979	
893	0	32748	32577	32771	31975	32877	
894	0	32799	32696	32763	31919	32707	
895	0	32834	32451	32711	31919	32675	
896	0	32894	32610	32762	31923	32883	
897	0	32788	32691	32663	32105	32823	
898	0	32888	32573	32723	31585	33256	
899	0	32812	32557	32809	31386	32999	
900	0	32835	32415	32697	31839	32941	
901	0	32819	32656	32769	32869	33017	
902	0	32809	32557	32775	34619	32613	
903	0	32882	32773	32775	35815	32579	
904	0	32799	32898	32647	34405	32829	
905	0	32892	32711	32639	34463	32717	
906	0	32903	32831	32627	34234	32729	
907	0	32915	32835	32675	32835	33017	
908	0	32775	32727	32711	31948	32919	
909	0	32727	32629	32805	31767	32701	
910	0	32762	32455	32802	32036	32850	
911	0	32746	32569	32717	31861	32945	
912	0	32690	32662	32795	31963	32775	
913	0	32647	32559	32793	32322	32711	
914	0	32738	32602	32795	32427	32873	
915	0	32792	32435	32795	32355	32839	
916	0	32616	32711	32722	32641	32695	
917	0	32628	32831	32697	32903	32775	
918	0	32775	32687	32717	33542	32925	
919	0	32720	32749	32807	33586	32954	
920	0	32765	32813	32818	33017	32847	
921	0	32774	32594	32751	32615	32849	
922	0	32757	32653	32677	31853	32762	
923	0	32792	32475	32639	31319	32981	
924	0	32813	32597	32505	31378	32951	
925	0	32856	32727	32589	31821	32775	
926	0	32860	32615	32515	32455	32803	
927	0	32870	32623	32595	32879	32939	
928	0	32834	32391	32617	33373	32847	
929	0	32764	32583	32614	34541	32817	
930	0	32763	32527	32603	34938	32883	
931	0	32711	32775	32715	34347	32399	
932	0	32656	32795	32768	32633	32799	
933	0	32697	32559	32805	32175	32869	
934	0	32798	32547	32775	32089	32801	
935	0	32864	32502	32728	32445	32959	
936	0	32899	32711	32711	32786	32960	
937	0	32815	32691	32727	33011	32855	
938	0	32807	32530	32705	32479	33045	
939	0	32839	32595	32738	32253	32708	
940	0	32805	32691	32815	32645	32363	
941	0	32756	32513	32735	32630	33115	
942	0	32768	32613	32771	32421	33150	
943	0	32768	32549	32707	32759	32695	
944	0	32869	32755	32571	33459	32357	
945	0	32888	32795	32579	33877	32199	
946	0	32905	32619	32610	33999	32819	
947	0	32858	32707	32647	33439	33183	
948	0	32844	32895	32662	33095	32839	
949	0	32800	32711	32653	32653	32722	
950	0	32736	32627	32809	32527	32937	
951	0	32643	32511	32807	32263	32825	
952	0	32678	32709	32811	31843	32899	
953	0	32620	32669	32849	31767	33191	
954	0	32716	32402	32807	31914	33159	
955	0	32800	32583	32741	32021	33001	
956	0	32887	32673	32739	32325	32952	
957	0	32790	32397	32805	32023	32899	
958	0	32851	32690	32805	32647	32891	
959	0	32802	32829	32775	33422	32839	
960	0	32755	32683	32735	33471	32770	
961	0	32792	32659	32775	33889	32789	
962	0	32813	32647	32680	33373	32837	
963	0	32795	32699	32617	32844	32847	
964	0	32756	32679	32595	32595	32899	
965	0	32775	32519	32597	32151	32824	
966	0	32719	32622	32639	32045	32775	
967	0	32756	32655	32637	32480	32795	
968	0	32768	32595	32731	33607	32807	
969	0	32868	32719	32727	34307	32761	
970	0	32856	32662	32739	34195	32931	
971	0	32840	32807	32730	33387	33069	
972	0	32824	32871	32815	32391	33011	
973	0	32775	32631	32767	32183	32775	
974	0	32789	32789	32739	32222	32709	
975	0	32818	32775	32721	32259	32903	
976	0	32735	32601	32770	32663	32947	
977	0	32640	32589	32803	32721	33047	
978	0	32681	32599	32795	32711	32502	
979	0	32793	32639	32719	32835	32519	
980	0	32763	32609	32805	32591	32902	
981	0	32788	32429	32671	31618	32948	
982	0	32836	32583	32599	31161	32646	
983	0	32806	32671	32565	31389	32917	
984	0	32833	32615	32563	31751	33223	
985	0	32852	32697	32583	32423	33133	
986	0	32701	32455	32599	33299	32839	
987	0	32662	32590	32671	33939	32886	
988	0	32666	32641	32795	36551	32923	
989	0	32735	32606	32793	36160	32806	
990	0	32775	32743	32690	33561	32895	
991	0	32775	32829	32670	32169	32870	
992	0	32775	32679	32815	32014	32793	
993	0	32837	32731	32839	31663	32961	
994	0	32800	32813	32821	32556	33199	
995	0	32770	32693	32679	33683	33003	
996	0	32891	32735	32688	33057	32491	
997	0	32837	32615	32613	32655	32443	
998	0	32813	32744	32741	31937	32743	
999	0	32796	32647	32794	31711	32925	
1000	0	32802	32409	32775	31879	32615	
1001	0	32861	32471	32751	32005	32903	
1002	0	32827	32615	32703	32279	32656	
1003	0	32715	32577	32735	32850	32629	
1004	0	32803	32617	32733	32943	32711	
1005	0	32722	32565	32713	32034	32707	
1006	0	32707	32730	32687	32613	32797	
1007	0	32785	32690	32735	33485	32801	
1008	0	32775	32551	32759	33479	32775	
1009	0	32765	32711	32722	33501	32691	
1010	0	32797	32655	32761	33746	32697	
1011	0	32929	32773	32829	33023	32891	
1012	0	32870	32665	32751	32593	32856	
1013	0	32812	32615	32687	33239	32701	
1014	0	32813	32721	32751	33331	32873	
1015	0	32774	32731	32723	32787	32697	
1016	0	32720	32738	32759	32475	33211	
1017	0	32752	32479	32763	32499	32997	
1018	0	32738	32611	32775	32599	32679	
1019	0	32753	32551	32804	32359	33048	
1020	0	32770	32660	32831	32333	32731	
1021	0	32727	32703	32767	32451	32867	
1022	0	32710	32763	32775	32515	33003	
1023	0	32745	32594	32850	32787	32855	
1024	0	32825	32647	32693	33369	33107	
1025	0	32819	32719	32682	32939	32964	
1026	0	32724	32697	32659	32326	32869	
1027	0	32800	32757	32667	32135	32875	
1028	0	32829	32561	32679	32141	32743	
1029	0	32861	32541	32583	32313	32895	
1030	0	32856	32751	32577	32582	32989	
1031	0	32896	32658	32527	33479	32883	
1032	0	32845	32647	32567	33490	32903	
1033	0	32838	32567	32617	32199	33123	
1034	0	32843	32711	32606	31924	32826	
1035	0	32857	32823	32647	32125	32813	
1036	0	32841	32763	32593	32787	33035	
1037	0	32799	32741	32569	33583	32859	
1038	0	32775	32545	32607	33705	33011	
1039	0	32749	32583	32626	33042	32562	
1040	0	32664	32541	32626	32858	32443	
1041	0	32656	32699	32605	33179	32839	
1042	0	32720	32751	32569	33442	32825	
1043	0	32702	32676	32590	32871	32850	
1044	0	32728	32755	32626	32291	33046	
1045	0	32661	32551	32709	32443	32812	
1046	0	32669	32653	32731	32646	32677	
1047	0	32711	32577	32775	33315	32889	
1048	0	32731	32717	32795	33857	33007	
1049	0	32720	32597	32812	33446	32931	
1050	0	32736	32677	32719	32616	32793	
1051	0	32864	32637	32698	32603	33133	
1052	0	32839	32725	32679	33095	32728	
1053	0	32824	32748	32683	33189	32502	
1054	0	32868	32773	32720	33068	32850	
1055	0	32918	32683	32734	32263	32888	
1056	0	32898	32565	32759	31635	32923	
1057	0	32868	32664	32791	31536	32753	
1058	0	32832	32464	32813	31827	32947	
1059	0	32772	32679	32807	32127	32819	
1060	0	32710	32647	32799	32163	33093	
1061	0	32586	32849	32803	32557	32873	
1062	0	32674	32735	32797	33251	33249	
1063	0	32732	32659	32775	33666	32823	
1064	0	32805	32630	32759	33223	32656	
1065	0	32752	32615	32749	33267	32590	
1066	0	32775	32627	32708	33375	32871	
1067	0	32789	32527	32717	33405	33242	
1068	0	32789	32647	32717	32791	32753	
1069	0	32794	32589	32717	32223	32357	
1070	0	32793	32757	32767	32139	33255	
1071	0	32775	32758	32711	33207	32647	
1072	0	32829	32671	32688	33997	32745	
1073	0	32863	32581	32711	33183	32621	
1074	0	32760	32507	32639	32771	32903	
1075	0	32797	32602	32631	32343	33027	
1076	0	32812	32563	32699	32059	32819	
1077	0	32797	32621	32799	31815	32845	
1078	0	32735	32601	32847	32079	33077	
1079	0	32728	32763	32839	32327	32839	
1080	0	32880	32543	32720	32759	32759	
1081	0	32882	32611	32711	33845	32619	
1082	0	32813	32581	32730	33126	32581	
1083	0	32773	32751	32725	32301	32863	
1084	0	32723	32801	32742	32303	32668	
1085	0	32747	32683	32745	32263	32963	
1086	0	32802	32717	32705	32487	32839	
1087	0	32749	32512	32747	32835	32751	
1088	0	32710	32695	32719	33319	32981	
1089	0	32743	32623	32791	34338	32756	
1090	0	32701	32663	32751	35205	32869	
1091	0	32775	32691	32677	33718	32455	
1092	0	32815	32675	32613	32307	32743	
1093	0	32829	32861	32559	31417	33055	
1094	0	32818	32647	32655	31378	32847	
1095	0	32758	32639	32579	31783	32728	
1096	0	32718	32599	32543	31819	32851	
1097	0	32800	32711	32623	32767	32641	
1098	0	32813	32619	32599	33463	32839	
1099	0	32899	32665	32549	33189	32847	
1100	0	32843	32450	32679	33663	33060	
1101	0	32863	32665	32803	33093	32839	
1102	0	32775	32575	32821	32351	32775	
1103	0	32758	32677	32771	32946	32903	
1104	0	32800	32517	32739	32665	33059	
1105	0	32824	32475	32741	31855	32775	
1106	0	32757	32571	32775	32194	32939	
1107	0	32613	32583	32771	32595	32951	
1108	0	32759	32740	32829	33139	32827	
1109	0	32786	32731	32775	33618	33007	
1110	0	32816	32775	32699	32829	32959	
1111	0	32713	32733	32719	32375	32711	
1112	0	32756	32725	32729	33767	33025	
1113	0	32902	32503	32720	34375	33021	
1114	0	32925	32663	32820	34124	32625	
1115	0	32921	32797	32751	33095	32627	
1116	0	32869	32799	32757	32850	32685	
1117	0	32871	32711	32765	33299	32869	
1118	0	32831	32581	32795	32535	32950	
1119	0	32805	32591	32797	32003	32644	
1120	0	32750	32541	32797	31482	32617	
1121	0	32699	32623	32818	31219	32992	
1122	0	32676	32602	32799	31207	33531	
1123	0	32689	32735	32757	31619	32471	
1124	0	32735	32850	32716	32415	32527	
1125	0	32744	32721	32735	32854	32428	
1126	0	32805	32628	32791	32999	32966	
1127	0	32865	32466	32787	32689	32851	
1128	0	32853	32719	32751	33091	33115	
1129	0	32848	32698	32723	33855	32895	
1130	0	32775	32569	32747	34591	32913	
1131	0	32827	32566	32677	33919	32835	
1132	0	32800	32398	32728	32553	32703	
1133	0	32707	32485	32739	32374	32989	
1134	0	32717	32541	32763	32697	32613	
1135	0	32687	32749	32731	31815	32959	
1136	0	32662	32849	32735	31528	32999	
1137	0	32662	32807	32759	31839	33086	
1138	0	32685	32747	32771	33202	32759	
1139	0	32639	32643	32691	33485	32882	
1140	0	32669	32823	32749	33263	32711	
1141	0	32762	32645	32728	33519	32722	
1142	0	32848	32723	32690	33855	32807	
1143	0	32824	32643	32679	34301	32771	
1144	0	32837	32647	32673	33603	32967	
1145	0	32817	32615	32693	32639	33109	
1146	0	32848	32483	32735	32002	32951	
1147	0	32853	32671	32661	31907	32967	
1148	0	32813	32626	32775	31910	32882	
1149	0	32786	32679	32747	32005	32751	
1150	0	32824	32703	32749	32065	33021	
1151	0	32704	32656	32839	32089	33046	
1152	0	32775	32732	32851	32381	32883	
1153	0	32824	32531	32855	32541	33013	
1154	0	32796	32647	32851	32765	32873	
1155	0	32848	32583	32837	32953	32658	
1156	0	32804	32751	32773	32839	33042	
1157	0	32775	32894	32813	33095	32791	
1158	0	32728	32818	32685	32691	33027	
1159	0	32712	32727	32723	32403	32775	
1160	0	32800	32511	32661	32453	32923	
1161	0	32790	32659	32653	32157	32695	
1162	0	32685	32441	32679	31751	32627	
1163	0	32668	32557	32662	32349	32801	
1164	0	32736	32677	32623	33159	32725	
1165	0	32758	32615	32722	33556	32955	
1166	0	32737	32741	32693	33780	33091	
1167	0	32642	32583	32873	34447	32707	
1168	0	32700	32631	32789	35063	32743	
1169	0	32770	32551	32718	34759	33015	
1170	0	32825	32741	32717	33796	32651	
1171	0	32786	32877	32722	32602	32663	
1172	0	32730	32791	32732	31731	32983	
1173	0	32768	32639	32727	31480	32789	
1174	0	32789	32511	32663	31593	32835	
1175	0	32775	32653	32671	31718	32955	
1176	0	32773	32675	32756	31751	32789	
1177	0	32740	32617	32745	31847	32897	
1178	0	32775	32599	32775	32071	32751	
1179	0	32768	32479	32735	32055	32647	
1180	0	32775	32608	32749	31975	32936	
1181	0	32786	32667	32685	31593	32775	
1182	0	32839	32658	32653	31857	32627	
1183	0	32813	32703	32717	32229	32922	
1184	0	32709	32655	32803	32361	32735	
1185	0	32704	32691	32743	33447	32839	
1186	0	32775	32505	32737	34823	32775	
1187	0	32912	32775	32743	35098	32747	
1188	0	32907	32881	32753	35195	32965	
1189	0	32839	32875	32754	34986	32898	
1190	0	32860	32771	32706	34811	32775	
1191	0	32851	32673	32695	34352	32647	
1192	0	32775	32813	32731	32180	32607	
1193	0	32731	32671	32720	31167	32833	
1194	0	32756	32635	32813	31035	33119	
1195	0	32886	32675	32763	31463	32775	
1196	0	32833	32375	32795	31587	32813	
1197	0	32837	32441	32835	32263	33015	
1198	0	32787	32523	32775	32263	32770	
1199	0	32849	32583	32829	31923	32592	
1200	0	32729	32643	32797	32109	33115	
1201	0	32647	32673	32749	32619	33134	
1202	0	32769	32789	32647	32991	32807	
1203	0	32902	32621	32693	32933	32902	
1204	0	32846	32583	32737	32045	33190	
1205	0	32764	32556	32730	32355	33159	
1206	0	32770	32617	32802	33101	32775	
1207	0	32711	32407	32825	32455	32915	
1208	0	32688	32487	32825	32621	33065	
1209	0	32762	32483	32786	33735	32399	
1210	0	32764	32633	32795	34543	32741	
1211	0	32733	32775	32768	34031	32851	
1212	0	32784	32695	32759	33461	32818	
1213	0	32824	32697	32751	32731	32989	
1214	0	32931	32543	32775	32199	32665	
1215	0	32846	32686	32687	32513	32863	
1216	0	32775	32796	32647	32737	32891	
1217	0	32798	32775	32599	32627	32786	
1218	0	32804	32743	32619	33186	32702	
1219	0	32827	32557	32699	33207	33243	
1220	0	32843	32589	32679	32525	32967	
1221	0	32803	32720	32681	32198	32607	
1222	0	32756	32637	32687	31931	32987	
1223	0	32753	32631	32697	31534	33031	
1224	0	32656	32455	32681	31586	33050	
1225	0	32681	32635	32735	31936	33095	
1226	0	32654	32715	32651	33120	32967	
1227	0	32611	32763	32627	33799	32749	
1228	0	32696	32762	32743	33171	32599	
1229	0	32850	32416	32761	33232	32791	
1230	0	32860	32583	32741	35039	32685	
1231	0	32775	32529	32763	34933	32559	
1232	0	32772	32823	32741	33551	32877	
1233	0	32761	32879	32775	32642	32704	
1234	0	32754	32738	32831	32033	32887	
1235	0	32788	32815	32775	32215	32647	
1236	0	32775	32519	32758	32391	32923	
1237	0	32805	32723	32831	31975	32925	
1238	0	32775	32623	32849	31977	32525	
1239	0	32725	32799	32839	32139	32353	
1240	0	32726	32767	32835	32327	32899	
1241	0	32734	32711	32739	32391	32917	
1242	0	32742	32703	32699	32307	32743	
1243	0	32762	32689	32742	33282	32867	
1244	0	32807	32711	32738	33617	32915	
1245	0	32807	32737	32719	33903	33175	
1246	0	32793	32671	32685	33885	33067	
1247	0	32724	32683	32706	33517	32667	
1248	0	32763	32341	32661	33055	32873	
1249	0	32928	32479	32677	31231	32879	
1250	0	32981	32603	32677	30247	32755	
1251	0	32848	32513	32647	30769	32952	
1252	0	32857	32527	32619	31788	32741	
1253	0	32922	32507	32565	33151	32995	
1254	0	33017	32717	32636	34135	32799	
1255	0	32988	32547	32623	34381	32600	
1256	0	32971	32735	32614	34966	32915	
1257	0	32993	32655	32666	35608	33069	
1258	0	32967	32855	32709	34177	32877	
1259	0	32988	32775	32711	32793	32695	
1260	0	32950	32805	32680	31203	32465	
1261	0	32937	32759	32677	31695	32846	
1262	0	33022	32667	32671	32717	32903	
1263	0	33004	32655	32667	32719	32775	
1264	0	32997	32571	32627	33223	33033	
1265	0	33033	32639	32583	32983	32794	
1266	0	32861	32438	32613	32569	32939	
1267	0	32837	32655	32691	32083	32898	
1268	0	32833	32655	32632	32261	32711	
1269	0	32878	32795	32716	32127	32957	
1270	0	32803	32583	32690	31939	32711	
1271	0	32700	32571	32735	31795	32855	
1272	0	32549	32471	32719	31921	32831	
1273	0	32514	32453	32670	32883	32893	
1274	0	32282	32365	32735	33571	32733	
1275	0	32280	32450	32775	32963	32910	
1276	0	32301	32521	32789	32349	32935	
1277	0	32320	32535	32845	33343	32685	
1278	0	32313	32565	32831	33442	32806	
1279	0	32377	32386	32792	32985	33014	
1280	0	32370	32683	32811	33039	32549	
1281	0	32358	32743	32772	32568	32902	
1282	0	32363	32653	32845	32211	32804	
1283	0	32423	32717	32903	32108	33031	
1284	0	32532	32875	32850	32134	32931	
1285	0	32488	32799	32857	32359	32562	
1286	0	32592	32755	32898	33031	32614	
1287	0	32812	32607	32825	32820	33235	
1288	0	32827	32751	32809	33217	32919	
1289	0	32969	32720	32711	33349	32699	
1290	0	32969	32621	32579	32854	32869	
1291	0	32982	32757	32557	32583	32743	
1292	0	32987	32723	32557	32519	33128	
1293	0	33065	32719	32521	32163	32903	
1294	0	33051	32690	32473	31929	33047	
1295	0	33054	32538	32514	32211	32857	
1296	0	33046	32726	32717	32679	32739	
1297	0	32961	32698	32739	32646	32765	
1298	0	32931	32498	32635	32775	33019	
1299	0	32856	32631	32699	33129	32659	
1300	0	32801	32647	32710	33981	32722	
1301	0	32784	32451	32731	34289	32995	
1302	0	32849	32613	32719	34310	32545	
1303	0	32904	32733	32564	34226	32711	
1304	0	32872	32556	32705	33047	32899	
1305	0	32826	32866	32772	33307	32851	
1306	0	32772	32931	32658	33837	32807	
1307	0	32882	32813	32797	33651	32759	
1308	0	32772	32935	32775	32631	32749	
1309	0	32747	32743	32775	32142	32943	
1310	0	32737	32598	32747	32527	33015	
1311	0	32724	32662	32711	31864	32775	
1312	0	32748	32603	32672	31331	32877	
1313	0	32711	32659	32621	31239	32519	
1314	0	32796	32679	32617	31197	33039	
1315	0	32805	32551	32659	31347	33053	
1316	0	32851	32627	32707	32795	32919	
1317	0	32822	32732	32675	33856	32805	
1318	0	32792	32572	32767	34919	32991	
1319	0	32861	32661	32809	34771	33013	
1320	0	32888	32663	32767	32903	32818	
1321	0	32823	32637	32734	32323	32775	
1322	0	32768	32599	32687	31986	33012	
1323	0	32775	32354	32673	31331	33005	
1324	0	32815	32479	32634	31207	32739	
1325	0	32898	32552	32717	31638	32745	
1326	0	32766	32423	32775	32406	32851	
1327	0	32800	32455	32775	34612	32819	
1328	0	32707	32423	32721	35156	32890	
1329	0	32665	32730	32621	34413	32871	
1330	0	32712	32953	32619	34115	32583	
1331	0	32621	32917	32553	32728	32907	
1332	0	32707	32735	32583	31527	32907	
1333	0	32765	32481	32575	33357	32747	
1334	0	32744	32480	32623	34527	32795	
1335	0	32755	32751	32626	33933	32987	
1336	0	32696	32722	32763	33887	32749	
1337	0	32798	32709	32765	32753	32891	
1338	0	32851	32829	32761	31699	33026	
1339	0	32869	32755	32739	31449	32930	
1340	0	32833	32791	32725	30809	32529	
1341	0	32868	32547	32775	31295	32793	
1342	0	32775	32711	32770	31929	32883	
1343	0	32819	32645	32757	31693	32619	
1344	0	32882	32595	32804	32444	32886	
1345	0	32873	32549	32767	33301	32935	
1346	0	32855	32278	32711	33415	33007	
1347	0	32806	32415	32749	34255	32799	
1348	0	32813	32603	32705	33845	32775	
1349	0	32826	32599	32685	33005	32939	
1350	0	32805	32703	32727	32849	32915	
1351	0	32748	32485	32749	32813	32903	
1352	0	32729	32656	32758	32471	33069	
1353	0	32752	32722	32755	32063	32771	
1354	0	32712	32536	32717	32231	32811	
1355	0	32754	32603	32711	32325	32737	
1356	0	32728	32690	32739	32301	32949	
1357	0	32765	32731	32775	32279	33034	
1358	0	32758	32795	32765	32446	32869	
1359	0	32775	32594	32801	32595	32732	
1360	0	32758	32679	32758	32511	33037	
1361	0	32880	32565	32803	32597	32519	
1362	0	32822	32679	32789	32582	32937	
1363	0	32743	32903	32799	32321	33041	
1364	0	32686	32775	32751	32573	32658	
1365	0	32731	32709	32743	32889	32839	
1366	0	32658	32532	32765	33241	32903	
1367	0	32800	32623	32605	33797	32774	
1368	0	32867	32727	32711	33819	32855	
1369	0	32789	32701	32711	33812	33031	
1370	0	32789	32759	32647	34055	32751	
1371	0	32792	32663	32615	33273	32821	
1372	0	32745	32807	32535	32189	33065	
1373	0	32694	32647	32625	31675	32839	
1374	0	32742	32726	32741	31498	33017	
1375	0	32784	32807	32793	31407	32635	
1376	0	32824	32717	32775	31967	32903	
1377	0	32818	32667	32889	32967	32739	
1378	0	32868	32408	32887	33587	32989	
1379	0	32912	32679	32951	34795	32563	
1380	0	32850	32739	32903	33463	32605	
1381	0	32832	32603	32990	31522	32787	
1382	0	32853	32743	32953	31691	32859	
1383	0	32797	32595	32722	31675	32775	
1384	0	32775	32583	32559	31569	32882	
1385	0	32718	32571	32551	32301	32967	
1386	0	32797	32697	32631	32884	33031	
1387	0	32798	32583	32605	35313	33053	
1388	0	32791	32403	32702	35381	32847	
1389	0	32678	32549	32799	35898	32839	
1390	0	32647	32580	32806	35240	33061	
1391	0	32837	32727	32787	33139	33155	
1392	0	32815	32711	32775	33613	33086	
1393	0	32805	32669	32726	34088	32847	
1394	0	32892	32663	32683	34578	32855	
1395	0	32962	32711	32643	34401	32899	
1396	0	32973	32675	32617	33894	32915	
1397	0	32873	32659	32592	32577	32769	
1398	0	32768	32799	32612	31654	32839	
1399	0	32833	32715	32704	30427	32733	
1400	0	32816	32583	32746	29365	32627	
1401	0	32902	32467	32764	29127	32823	
1402	0	32835	32605	32609	30319	32628	
1403	0	32863	32709	32717	32237	32839	
1404	0	32731	32513	32811	32441	33263	
1405	0	32704	32715	32741	31544	33079	
1406	0	32765	32723	32775	31739	32582	
1407	0	32757	32557	32703	32871	32295	
1408	0	32667	32619	32775	32509	32829	
1409	0	32699	32402	32755	32525	32902	
1410	0	32775	32511	32775	33017	32871	
1411	0	32775	32545	32797	33446	32691	
1412	0	32696	32509	32807	33846	32920	
1413	0	32801	32693	32839	34231	33124	
1414	0	32724	32886	32815	32735	32719	
1415	0	32651	32935	32822	31811	32699	
1416	0	32539	33035	32835	32204	32960	
1417	0	32644	32943	32821	32455	32775	
1418	0	32604	32927	32760	32172	33178	
1419	0	32669	32651	32775	32182	32775	
1420	0	32850	32589	32770	32047	32775	
1421	0	32876	32635	32677	32405	32493	
1422	0	32829	32367	32662	33357	32759	
1423	0	32832	32493	32571	34513	33031	
1424	0	32809	32775	32595	34877	33163	
1425	0	32839	32579	32637	34491	32932	
1426	0	32839	32755	32835	34533	32727	
1427	0	32839	32799	32723	33629	32801	
1428	0	32896	32599	32731	32863	32571	
1429	0	32812	32775	32647	32957	32622	
1430	0	32928	32722	32711	32603	32679	
1431	0	32947	32502	32711	32094	33095	
1432	0	32845	32684	32817	31536	32915	
1433	0	32787	32626	32751	31354	32608	
1434	0	32822	32450	32839	31053	32751	
1435	0	32800	32507	32855	30400	32755	
1436	0	32801	32731	32855	29979	32822	
1437	0	32764	32662	32745	31821	32681	
1438	0	32775	32551	32731	33391	32927	
1439	0	32818	32696	32693	33303	32799	
1440	0	32747	32615	32623	34669	32683	
1441	0	32701	32696	32609	34147	32959	
1442	0	32668	32643	32624	34848	32677	
1443	0	32711	32809	32642	36658	32741	
1444	0	32704	32873	32581	35023	32730	
1445	0	32736	32839	32489	33111	32985	
1446	0	32795	32775	32401	33229	33023	
1447	0	32775	32767	32469	32757	32831	
1448	0	32855	32579	32605	32425	33005	
1449	0	32812	32551	32762	32219	33251	
1450	0	32775	32647	32807	32091	32861	
1451	0	32768	32379	32815	32242	32807	
1452	0	32802	32439	32871	32839	32613	
1453	0	32703	32347	32907	31846	33007	
1454	0	32790	32614	32915	31158	32809	
1455	0	32872	32743	32839	31783	32909	
1456	0	32775	32809	32820	32647	32418	
1457	0	32783	32871	32775	32733	32797	
1458	0	32766	32793	32741	32975	32815	
1459	0	32733	32695	32635	33927	32801	
1460	0	32707	32342	32623	33645	32751	
1461	0	32775	32519	32693	32983	32824	
1462	0	32725	32583	32751	32821	32647	
1463	0	32813	32793	32747	32085	32775	
1464	0	32829	32719	32797	33107	32741	
1465	0	32775	32775	32813	33605	32473	
1466	0	32775	32925	32833	30834	33325	
1467	0	32677	32583	32807	32371	33095	
1468	0	32718	32636	32829	31509	32866	
1469	0	32760	32431	32743	30373	32759	
1470	0	32764	32437	32721	32853	33003	
1471	0	32766	32595	32724	34823	32805	
1472	0	32916	32639	32659	34857	32717	
1473	0	32947	32710	32685	34209	32898	
1474	0	32948	32797	32675	33442	32483	
1475	0	32967	32943	32619	34419	32517	
1476	0	32904	32674	32587	34695	32971	
1477	0	32828	32639	32615	32857	33005	
1478	0	32756	32745	32615	29622	32833	
1479	0	32672	32493	32563	27497	32694	
1480	0	32572	32449	32661	28130	33130	
1481	0	32571	32344	32726	29614	33019	
1482	0	32594	32519	32697	30738	33005	
1483	0	32696	32463	32757	34626	32839	
1484	0	32824	32704	32729	38597	32621	
1485	0	32772	32896	32751	38799	33015	
1486	0	32668	32727	32719	36187	33375	
1487	0	32671	32795	32863	33579	32819	
1488	0	32699	32699	32851	33009	32869	
1489	0	32745	32935	32819	30933	33058	
1490	0	32711	32662	32775	31617	32659	
1491	0	32711	32726	32825	32263	33072	
1492	0	32759	32641	32891	32037	32941	
1493	0	32861	32698	32866	31935	32685	
1494	0	32824	32640	32825	31873	32919	
1495	0	32797	32439	32864	31154	32767	
1496	0	32828	32577	32919	31524	32877	
1497	0	32876	32567	32917	32008	32919	
1498	0	32872	32553	32993	31581	32871	
1499	0	32844	32519	32997	31371	32703	
1500	0	32752	32417	32813	31623	32991	
1501	0	32744	32487	32658	33124	32768	
1502	0	32690	32445	32365	34599	32716	
1503	0	32543	32687	32390	33717	32944	
1504	0	32768	32533	32455	33606	32851	
1505	0	32798	32549	32603	35143	33007	
1506	0	32761	32761	32647	35447	32553	
1507	0	32662	32909	32685	34169	33103	
1508	0	32738	33012	32697	33125	32751	
1509	0	32774	32687	32798	30453	32634	
1510	0	32833	32813	32799	30271	33051	
1511	0	32932	32727	32831	31623	32615	
1512	0	32875	32775	32851	33698	32690	
1513	0	32855	32683	32768	34751	32775	
1514	0	32787	32731	32756	33203	33135	
1515	0	32704	32613	32685	32855	32877	
1516	0	32770	32834	32639	33743	32703	
1517	0	32726	32737	32651	32155	32883	
1518	0	32804	33048	32711	29273	32625	
1519	0	32792	32759	32775	29023	33040	
1520	0	32747	32687	32775	33718	33110	
1521	0	32794	32423	32821	36267	32737	
1522	0	32775	32537	32767	34231	33028	
1523	0	32736	32443	32765	33039	32677	
1524	0	32771	32507	32792	32099	32576	
1525	0	32732	32455	32813	32303	32594	
1526	0	32818	32531	32691	32289	32627	
1527	0	32789	32691	32623	31239	33093	
1528	0	32832	32975	32614	33339	32865	
1529	0	32849	33009	32727	36800	32833	
1530	0	32745	32775	32805	35769	32611	
1531	0	32705	32931	32823	33942	32614	
1532	0	32746	32775	32789	33977	32901	
1533	0	32765	32663	32711	32071	32771	
1534	0	32698	32497	32726	29447	33065	
1535	0	32675	32427	32743	30287	32685	
1536	0	32720	32449	32738	33001	32083	
1537	0	32769	32370	32735	35561	32568	
1538	0	32792	32323	32575	36239	33110	
1539	0	32706	32403	32614	35319	33527	
1540	0	32812	32255	32754	32599	33028	
1541	0	32840	32449	32893	32649	33069	
1542	0	32867	32369	32812	33623	32733	
1543	0	32920	32395	32704	28693	32855	
1544	0	32857	32239	32701	26215	32739	
1545	0	32863	32406	32711	28842	33053	
1546	0	32832	32455	32679	31115	32921	
1547	0	32936	32653	32615	34668	32765	
1548	0	32928	32767	32455	37154	33031	
1549	0	33053	32873	32455	38043	32739	
1550	0	32949	33181	32446	38437	32455	
1551	0	32877	33193	32482	37785	32809	
1552	0	32752	33136	32710	31709	33140	
1553	0	32662	33086	32757	27073	32869	
1554	0	32787	32923	32831	26608	32755	
1555	0	32805	32825	32883	28151	32919	
1556	0	32684	32669	32851	29767	32999	
1557	0	32701	32419	32771	31941	32775	
1558	0	32544	32505	32775	33831	32722	
1559	0	32592	32361	32869	34007	33081	
1560	0	32657	32603	32877	34191	32651	
1561	0	32756	32481	32895	34637	32824	
1562	0	32770	32602	32720	32612	32946	
1563	0	32646	32583	32802	29711	32992	
1564	0	32725	32771	32883	29654	32111	
1565	0	32855	32775	32907	31221	32607	
1566	0	32908	32749	32803	33121	33019	
1567	0	32907	32575	32651	34379	32967	
1568	0	32886	32634	32535	35511	32734	
1569	0	32872	32927	32598	35360	32829	
1570	0	32762	32825	32731	33551	32979	
1571	0	32675	32964	32770	31651	32679	
1572	0	32765	32929	32915	30571	32623	
1573	0	32890	32879	32861	30816	33427	
1574	0	32733	32640	32807	31239	32821	
1575	0	32664	32571	32819	30814	31985	
1576	0	32708	32562	32679	31549	32887	
1577	0	32765	32351	32711	33853	33287	
1578	0	32860	32371	32807	33940	33257	
1579	0	32787	32491	32732	32799	32923	
1580	0	32794	32528	32770	33387	32699	
1581	0	32790	32359	32671	35219	33223	
1582	0	32697	32487	32589	33563	33201	
1583	0	32624	32775	32547	33782	32356	
1584	0	32755	32825	32513	36939	32195	
1585	0	32811	32681	32442	36277	32311	
1586	0	32873	32443	32431	35975	33629	
1587	0	32882	32604	32447	37381	33450	
1588	0	32999	32666	32570	35881	33169	
1589	0	32903	33093	32528	31781	32295	
1590	0	32789	33143	32703	29301	32203	
1591	0	32704	32960	32824	28311	32705	
1592	0	32795	33027	32755	26626	32952	
1593	0	32704	32879	32807	29893	32727	
1594	0	32632	32487	32795	31239	32391	
1595	0	32755	32557	32966	34011	32824	
1596	0	32815	32426	32870	37209	32677	
1597	0	32882	32306	32832	39448	32800	
1598	0	32928	32595	32866	43087	32935	
1599	0	32898	32747	32899	40775	33083	
1600	0	32882	32706	32712	34666	32916	
1601	0	32817	32804	32581	29127	32303	
1602	0	32820	32741	32552	28187	32384	
1603	0	32809	32495	32531	25343	33095	
1604	0	32795	32771	32571	26381	32751	
1605	0	32804	32652	32518	24799	32651	
1606	0	32667	32429	32503	24147	32851	
1607	0	32617	32559	32570	26414	32837	
1608	0	32667	32436	32655	28977	33246	
1609	0	32641	32307	32665	30131	33108	
1610	0	32616	32400	32665	34437	33406	
1611	0	32650	32400	32775	38299	32231	
1612	0	32750	32746	32715	37605	32169	
1613	0	32758	32767	32688	34755	32390	
1614	0	32699	32513	32775	33949	33138	
1615	0	32839	32581	32715	33779	33424	
1616	0	32784	32749	32687	34215	32903	
1617	0	32732	32723	32591	34263	32934	
1618	0	32812	32703	32667	34295	32863	
1619	0	32762	32605	32528	34134	33199	
1620	0	32743	32479	32559	34257	32525	
1621	0	32676	32543	32711	33399	32045	
1622	0	32658	32513	32793	29936	32461	
1623	0	32669	32704	32845	28602	33359	
1624	0	32642	32735	32989	29077	33257	
1625	0	32784	32630	33083	29298	33081	
1626	0	32725	32775	33007	29442	33063	
1627	0	32805	32603	32999	31386	32953	
1628	0	32805	32455	32929	37008	32246	
1629	0	32797	32647	32929	41836	33328	
1630	0	32916	32663	32775	41319	32883	
1631	0	33004	33311	32791	40103	32253	
1632	0	32933	33785	32667	40497	32576	
1633	0	32914	33799	32542	39107	33063	
1634	0	32953	33579	32598	39318	32793	
1635	0	32999	33116	32628	36406	32679	
1636	0	33026	32865	32717	31788	32740	
1637	0	32963	32219	32577	25592	32509	
1638	0	32809	31847	32491	24609	32759	
1639	0	32733	31991	32327	24937	33242	
1640	0	32625	31915	32409	26567	33095	
1641	0	32717	32037	32443	28951	32565	
1642	0	32576	31929	32609	26726	32639	
1643	0	32600	32119	32857	21641	33033	
1644	0	32672	32250	32967	23386	33283	
1645	0	32500	31801	32941	28839	32897	
1646	0	32499	31799	32792	32849	33023	
1647	0	32576	32325	32730	40399	32825	
1648	0	32711	32492	32744	48944	32724	
1649	0	32834	32659	32659	47083	32404	
1650	0	33121	32839	32551	42851	32566	
1651	0	33153	33385	32455	36914	32882	
1652	0	33036	33155	32416	33065	32859	
1653	0	32880	33449	32549	29063	33093	
1654	0	33028	33551	32730	25916	32655	
1655	0	33064	33251	32903	25299	32637	
1656	0	33005	33016	32951	25623	32442	
1657	0	32856	32637	32967	30383	32677	
1658	0	32713	32559	32839	34034	32510	
1659	0	32658	32383	32803	34162	33287	
1660	0	32735	32551	32663	32089	32935	
1661	0	32563	32703	32642	31109	32641	
1662	0	32582	32583	32568	30066	32429	
1663	0	32592	32754	32839	28731	32275	
1664	0	32617	32815	32995	29897	33389	
1665	0	32763	32513	32975	31625	33735	
1666	0	32766	32455	32957	31729	33357	
1667	0	32593	32293	32987	33005	32882	
1668	0	32584	32391	32917	34538	33320	
1669	0	32666	32615	32903	35919	33389	
1670	0	32704	32652	32710	38627	32850	
1671	0	32768	32884	32647	39223	32307	
1672	0	32896	32903	32612	37443	32242	
1673	0	32916	32882	32647	35488	33211	
1674	0	32682	32481	32720	30948	32470	
1675	0	32524	32194	32809	26631	32701	
1676	0	32621	32310	32809	24704	32643	
1677	0	32775	32253	32683	30727	32485	
1678	0	32902	32455	32711	38666	32923	
1679	0	33016	32437	32717	43830	33495	
1680	0	32984	32952	32775	41769	33083	
1681	0	33013	33127	32805	37541	31995	
1682	0	33110	33247	32859	33918	32095	
1683	0	32912	33343	32832	27628	32553	
1684	0	32896	33011	32767	25042	32633	
1685	0	32873	33054	32667	26491	33031	
1686	0	32774	32663	32743	26625	32953	
1687	0	32728	32363	32888	28090	32535	
1688	0	32556	31933	32898	31432	33184	
1689	0	32525	32097	32903	36094	32427	
1690	0	32597	32565	32877	35299	32227	
1691	0	32652	32605	32767	37027	32508	
1692	0	32665	32717	32675	37349	32929	
1693	0	32736	32850	32610	36449	33127	
1694	0	32812	33067	32623	34565	33341	
1695	0	32869	33193	32563	35170	33399	
1696	0	32884	32927	32487	31199	33148	
1697	0	32775	32847	32537	30247	33106	
1698	0	32706	32563	32679	31569	32775	
1699	0	32744	32393	32875	32917	32658	
1700	0	32766	32455	32919	29274	32923	
1701	0	32848	32263	32867	26247	32263	
1702	0	32933	32213	32850	26795	32388	
1703	0	32878	32171	32805	27179	33255	
1704	0	32869	32115	32819	26757	33065	
1705	0	32841	32323	32749	29366	32813	
1706	0	32829	32459	32775	31483	32647	
1707	0	32793	32618	32647	32437	32995	
1708	0	32617	32510	32745	37159	33190	
1709	0	32603	32133	32733	40218	32962	
1710	0	32642	32479	32720	39017	32575	
1711	0	32690	32629	32797	37879	32678	
1712	0	32659	32361	32717	36807	32351	
1713	0	32601	32263	32628	33455	32717	
1714	0	32583	32247	32487	33710	33058	
1715	0	32597	32261	32449	33267	33302	
1716	0	32709	32399	32607	32071	33087	
1717	0	32766	32617	32617	34019	33344	
1718	0	32792	33047	32651	33703	33169	
1719	0	32812	33278	32706	30742	32501	
1720	0	32748	33106	32774	29965	32775	
1721	0	32716	33058	32879	31843	32873	
1722	0	32805	33187	32959	34529	32177	
1723	0	32797	33282	33071	34985	32409	
1724	0	32859	33233	32962	31345	32935	
1725	0	32806	33063	32963	31159	32525	
1726	0	32864	33025	32807	32691	32918	
1727	0	32914	32727	32610	31713	33287	
1728	0	32775	32467	32495	31915	33235	
1729	0	32786	32499	32421	33695	32319	
1730	0	32740	32215	32446	34738	32639	
1731	0	32944	32653	32705	35945	32693	
1732	0	32952	32999	32835	33750	32351	
1733	0	32961	33119	32895	31409	33029	
1734	0	32848	33117	32833	30290	32725	
1735	0	32794	32391	32775	30791	32871	
1736	0	32805	32297	32748	33154	33093	
1737	0	32899	32377	32751	33983	33088	
1738	0	32775	32236	32620	31735	32767	
1739	0	32937	32407	32387	28893	33057	
1740	0	32913	32551	32432	29815	33120	
1741	0	32805	32937	32658	35103	32839	
1742	0	32823	33025	32850	34594	32803	
1743	0	32812	32961	32861	34731	33119	
1744	0	32846	32760	32765	29838	33069	
1745	0	32801	32815	32790	24365	33684	
1746	0	32668	32893	32711	23533	33542	
1747	0	32827	32501	32881	27878	32601	
1748	0	32938	32598	32741	36480	32740	
1749	0	33135	32319	32756	43217	32217	
1750	0	33143	32408	32869	44506	32295	
1751	0	33048	32532	32961	43795	31943	
1752	0	32976	32774	32882	40235	31947	
1753	0	32733	32921	32822	38029	32306	
1754	0	32530	32845	32583	34579	32646	
1755	0	32533	32930	32481	35670	32937	
1756	0	32492	32551	32292	36623	33037	
1757	0	32636	31962	32056	31535	33035	
1758	0	32687	32153	31794	29177	32787	
1759	0	32760	32489	31981	32315	33150	
1760	0	32720	32474	32399	29639	33113	
1761	0	32656	32784	32847	24419	32727	
1762	0	32686	32955	33195	18466	32671	
1763	0	32655	32967	33357	19509	33177	
1764	0	32716	33079	33263	24422	33347	
1765	0	32753	32807	33257	26433	32246	
1766	0	32793	32974	33063	30087	32739	
1767	0	32762	32977	32775	31069	33575	
1768	0	32722	32885	32433	30819	33282	
1769	0	32600	32619	32297	32963	32647	
1770	0	32677	32178	32390	35239	31979	
1771	0	32722	32013	32451	37043	32775	
1772	0	32770	31839	32459	35435	33415	
1773	0	32827	32099	32479	35575	32384	
1774	0	32815	32263	33001	36666	32219	
1775	0	32804	32673	33405	38638	32671	
1776	0	32841	32831	33420	38487	32871	
1777	0	32775	32859	33287	35757	33235	
1778	0	32768	33147	33095	32518	33097	
1779	0	32705	33115	32869	31930	32955	
1780	0	32683	32878	32706	35055	32591	
1781	0	32673	32889	32601	35967	33103	
1782	0	32597	32939	32297	33204	32805	
1783	0	32424	33009	32277	31303	32549	
1784	0	32576	32991	32227	29313	32847	
1785	0	32736	33139	32289	29319	33011	
1786	0	32745	33535	32607	31519	32775	
1787	0	32813	33487	32983	32825	32775	
1788	0	33009	33055	33113	35315	32819	
1789	0	32936	32635	33214	36202	33122	
1790	0	32872	32109	32990	36871	32853	
1791	0	32921	31731	32597	34349	32764	
1792	0	32898	31495	32339	34611	33035	
1793	0	32970	31346	32178	35580	32847	
1794	0	32941	32045	32381	36231	32813	
1795	0	32903	32535	32775	37639	32871	
1796	0	32967	32567	32898	33923	32775	
1797	0	32793	32604	32745	38524	32835	
1798	0	32987	32679	32737	43854	32473	
1799	0	33156	32477	32997	35679	32516	
1800	0	33052	32745	33165	24668	33472	
1801	0	32836	32875	33184	20185	33095	
1802	0	32835	32571	32955	17558	32871	
1803	0	32739	32677	32813	21217	32600	
1804	0	32514	32257	32803	24815	33051	
1805	0	32263	32135	32741	29911	33169	
1806	0	32141	32278	32617	32749	32597	
1807	0	32216	32653	32233	33698	32593	
1808	0	32629	32872	32250	36666	32630	
1809	0	33001	33179	32397	37011	32054	
1810	0	33003	33257	32345	36895	32235	
1811	0	32989	33095	32650	34326	32535	
1812	0	33062	33633	32578	31751	33831	
1813	0	33015	33743	32690	33671	33735	
1814	0	32792	33935	32729	30308	33088	
1815	0	32775	33645	32644	29253	32889	
1816	0	32682	33335	32677	32226	32448	
1817	0	32663	32703	32728	35398	32711	
1818	0	32682	32129	32709	36589	32921	
1819	0	32805	31875	32825	35793	32731	
1820	0	32820	31388	33057	35971	33093	
1821	0	32832	31097	33211	34519	33235	
1822	0	32906	31096	33089	34331	33223	
1823	0	32698	31683	32987	31911	33506	
1824	0	32815	32191	32604	32831	32945	
1825	0	32754	31926	32231	36069	32591	
1826	0	32582	32253	32375	37367	32289	
1827	0	32549	32655	32391	36195	32833	
1828	0	32582	33043	32447	33899	32509	
1829	0	32744	33287	32658	30201	32228	
1830	0	32775	33503	32820	30319	32735	
1831	0	32898	33967	33123	29789	32521	
1832	0	32976	33974	33246	31511	32699	
1833	0	32912	33458	33168	27837	32598	
1834	0	32839	32749	33013	22917	32855	
1835	0	32822	32639	32751	26360	32845	
1836	0	32823	32289	32450	29522	32551	
1837	0	32694	31823	32017	31919	33122	
1838	0	32688	31693	31975	31917	33199	
1839	0	32775	31635	32239	33479	32941	
1840	0	32860	31715	32325	35266	32096	
1841	0	32957	32044	32447	37712	32829	
1842	0	32886	32231	32917	38526	33339	
1843	0	32796	32730	33186	38941	33222	
1844	0	32784	33305	33287	40255	33280	
1845	0	32752	33583	33003	35335	33386	
1846	0	32736	33779	32873	28203	32359	
1847	0	32595	33887	32863	26118	31820	
1848	0	32548	33555	33065	28649	32952	
1849	0	32604	33395	32985	31386	33250	
1850	0	32634	33787	32903	29665	32855	
1851	0	32658	33767	32890	29999	32327	
1852	0	32956	33633	32741	34123	33065	
1853	0	32853	33383	32607	34483	33362	
1854	0	32775	32903	32535	35261	33229	
1855	0	32970	31949	32236	39341	32996	
1856	0	33028	30633	32301	43321	32719	
1857	0	32967	29599	32577	37613	32749	
1858	0	32865	29715	32683	30999	32751	
1859	0	32976	29891	32949	32263	32535	
1860	0	32989	30827	32820	36238	32656	
1861	0	33060	32217	32408	32583	32175	
1862	0	32962	33331	32391	26619	32997	
1863	0	32746	33799	32590	29181	33650	
1864	0	32544	33934	32688	29062	33711	
1865	0	32528	34329	32730	26671	32833	
1866	0	32788	34867	32765	27827	33269	
1867	0	32903	35627	32695	34344	33063	
1868	0	32740	35949	32647	36871	32506	
1869	0	32772	35224	32751	33450	32736	
1870	0	32646	33773	32732	26576	33127	
1871	0	32721	31789	32697	24309	32944	
1872	0	32835	30241	32638	23691	32711	
1873	0	32892	29246	32775	30593	32815	
1874	0	33032	29094	32791	38010	32688	
1875	0	33032	30172	32675	47266	32419	
1876	0	32896	31981	32679	47384	32750	
1877	0	32920	33069	32624	43630	32847	
1878	0	33042	33562	32708	34329	32569	
1879	0	33004	33479	32873	32641	33103	
1880	0	33036	32944	32809	30472	33117	
1881	0	33034	32715	32793	27533	33241	
1882	0	33219	32140	32857	24338	32601	
1883	0	33132	32154	32668	21299	32361	
1884	0	32947	31899	32541	22339	32727	
1885	0	32860	32611	32591	27129	32685	
1886	0	32954	32865	32675	33245	32813	
1887	0	32664	32690	32604	39101	32904	
1888	0	32583	33042	32591	44775	32615	
1889	0	32576	33026	32507	44699	32475	
1890	0	32285	33049	32605	40775	32557	
1891	0	32069	32737	32739	33984	32809	
1892	0	31980	32617	32801	30610	32849	
1893	0	31912	32539	32869	29955	33287	
1894	0	31997	32343	32985	30005	32885	
1895	0	32011	32671	32971	31117	32391	
1896	0	32127	32891	32944	31747	32711	
1897	0	32263	33172	33040	30491	33135	
1898	0	32398	33134	33217	29003	32635	
1899	0	32528	33099	33146	27002	33260	
1900	0	32626	33235	32863	28461	33195	
1901	0	32634	33269	32736	31279	32775	
1902	0	32660	33183	32723	33377	32979	
1903	0	32884	33874	32912	37078	32704	
1904	0	32909	34106	32865	40605	32023	
1905	0	32956	33910	32775	37837	32506	
1906	0	32881	33321	32677	32003	33287	
1907	0	33061	32173	32717	28368	33522	
1908	0	33089	31281	32807	26448	33077	
1909	0	33238	31063	32816	30235	32886	
1910	0	33144	31039	32583	33652	32775	
1911	0	33127	31339	32429	35257	33287	
1912	0	33015	32003	32358	38279	32591	
1913	0	33063	32741	32547	38700	32589	
1914	0	33048	33210	32647	33788	32673	
1915	0	32990	33751	32575	30231	32199	
1916	0	33064	33831	32496	31239	32381	
1917	0	32966	33459	32363	33051	33095	
1918	0	32929	33426	32514	34439	33394	
1919	0	32839	33063	32577	34791	32691	
1920	0	32869	33055	32493	35792	33159	
1921	0	32856	32509	32560	33643	33089	
1922	0	32736	31654	32615	28595	32660	
1923	0	32656	31418	32717	25004	32628	
1924	0	32746	31349	32772	26579	32219	
1925	0	32583	31186	32693	30003	32775	
1926	0	32692	31812	32741	34907	32743	
1927	0	32768	32839	32911	38693	32837	
1928	0	32640	33286	32959	37993	32819	
1929	0	32614	33128	32914	33496	32903	
1930	0	32711	33031	32861	32248	33015	
1931	0	32696	33283	32749	30861	32820	
1932	0	32711	33799	32775	29167	33121	
1933	0	32744	34051	32669	30318	33579	
1934	0	32861	35123	32669	33391	31988	
1935	0	32815	34951	32641	34739	32009	
1936	0	32594	33008	32681	33287	32939	
1937	0	32664	31151	32711	32995	32911	
1938	0	32604	29443	32723	30978	33358	
1939	0	32678	28856	32775	36577	32553	
1940	0	32835	29977	32729	40687	31705	
1941	0	32875	32219	32705	40283	32855	
1942	0	33030	34569	32704	32281	32993	
1943	0	33028	36050	32737	23725	33136	
1944	0	32924	36627	32741	23350	32701	
1945	0	32949	37082	32737	28419	32775	
1946	0	32850	36013	32769	31044	32526	
1947	0	32781	33397	32827	32033	32647	
1948	0	32587	29767	32763	31531	32751	
1949	0	32546	26796	32803	31347	33353	
1950	0	32624	25674	32920	33873	33686	
1951	0	32636	26631	32803	36944	33443	
1952	0	32862	28882	32635	36995	33781	
1953	0	32944	31141	32589	32985	34141	
1954	0	32932	32893	32682	29206	33498	
1955	0	32704	33871	32775	30379	32125	
1956	0	32803	34181	32757	29570	31426	
1957	0	32833	34503	32795	35952	31420	
1958	0	32844	34287	32877	42717	31388	
1959	0	32912	34045	32757	44971	32171	
1960	0	32955	34522	32720	41976	32935	
1961	0	32866	34820	32640	32082	33143	
1962	0	33226	34842	32553	20954	33044	
1963	0	32994	34567	32438	18169	33058	
1964	0	32816	33287	32434	23035	33053	
1965	0	32678	31315	32497	27122	33272	
1966	0	32736	29972	32582	32556	32967	
1967	0	32730	29163	32624	37017	32845	
1968	0	32698	29319	32879	40198	33320	
1969	0	32642	30530	32816	39907	33462	
1970	0	32514	31839	32754	38666	33091	
1971	0	32809	32741	32775	34635	33505	
1972	0	32658	33024	32685	32743	32871	
1973	0	32813	33047	32773	32576	33185	
1974	0	32829	33922	32983	31410	32374	
1975	0	32801	34407	32943	30119	31323	
1976	0	32616	34253	32845	31470	31123	
1977	0	32644	34042	32791	34567	32091	
1978	0	32775	34133	32761	35715	32895	
1979	0	32827	33838	32809	32967	33147	
1980	0	32749	33601	32615	31166	32625	
1981	0	32853	33389	32386	31553	31939	
1982	0	32784	33146	32381	33575	32724	
1983	0	32760	32950	32421	35806	33171	
1984	0	32761	32767	32443	35174	33182	
1985	0	32800	32937	32623	32317	33475	
1986	0	32937	32953	32727	32033	33366	
1987	0	32914	32937	32883	33375	33169	
1988	0	32800	32863	32953	33391	32543	
1989	0	32668	32664	32893	30615	32660	
1990	0	32723	32423	32847	29033	33265	
1991	0	32786	32342	32807	26672	32491	
1992	0	32762	32179	32711	26655	33239	
1993	0	32696	32394	32603	29415	33017	
1994	0	32681	32747	32556	39299	32873	
1995	0	32740	33151	32518	42923	32459	
1996	0	32841	33412	32579	43409	32988	
1997	0	32860	33407	32688	39405	32801	
1998	0	32812	33268	32723	31750	32775	
1999	0	32797	32991	32697	26624	32744	
2000	0	32748	32635	32800	25907	32829	
2001	0	32681	32768	32833	25750	33447	
2002	0	32871	32787	32775	28503	32690	
2003	0	32865	32806	32787	30699	33302	
2004	0	32812	32251	32773	31655	33793	
2005	0	32839	31969	32747	31929	32603	
2006	0	32781	31727	32690	30511	32711	
2007	0	32617	31418	32690	28926	32679	
2008	0	32644	31170	32749	35901	32711	
2009	0	32716	31113	32809	41287	32159	
2010	0	32832	32247	32803	37833	32551	
2011	0	32920	33956	32775	30311	33141	
2012	0	32933	34857	32771	28999	32883	
2013	0	33007	35158	32711	27695	33087	
2014	0	32952	34303	32647	31906	32513	
2015	0	32891	32833	32484	35501	32681	
2016	0	32735	31309	32529	36615	32720	
2017	0	32720	30311	32566	38336	32900	
2018	0	32818	30169	32743	37891	32877	
2019	0	32713	30757	32829	37157	32959	
2020	0	32520	31431	32948	36349	32795	
2021	0	32431	31374	32967	29921	33095	
2022	0	32489	31613	32935	31314	32985	
2023	0	32603	32154	32890	33539	32951	
2024	0	32676	32955	32826	37095	32489	
2025	0	32664	33508	32848	30586	33081	
2026	0	32638	33579	32903	26289	32941	
2027	0	32598	33061	32795	23801	32720	
2028	0	32660	32963	32767	25830	32654	
2029	0	32674	32663	32767	28576	32875	
2030	0	32844	32535	32729	28136	33115	
2031	0	32840	32820	32775	30143	33823	
2032	0	32868	32991	32949	32441	32239	
2033	0	32895	33631	32730	33138	31866	
2034	0	32796	33687	32475	34193	33346	
2035	0	32856	33503	32630	34023	33450	
2036	0	32844	33351	32813	32775	33168	
2037	0	32727	32921	32703	31292	32903	
2038	0	32966	32563	32607	33535	32703	
2039	0	33096	32242	32567	37912	32242	
2040	0	33054	32135	32601	42048	32233	
2041	0	32825	32285	32391	42227	32237	
2042	0	33032	32566	32647	40223	32839	
2043	0	33079	32549	32719	37575	32770	
2044	0	33057	32643	32791	32895	32491	
2045	0	32985	32753	32717	30628	33045	
2046	0	32840	32835	32873	30991	32980	
2047	0	32797	32775	32627	29032	33079	
2048	0	32770	32726	32415	28743	33078	
2049	0	32593	32609	32443	29263	32831	
2050	0	32513	32386	32775	31623	32774	
2051	0	32424	32578	32744	35195	33028	
2052	0	32584	32499	32559	37935	32415	
2053	0	32651	32493	32583	37353	32689	
2054	0	32743	32999	32834	34119	32813	
2055	0	32702	32918	32950	33283	33149	
2056	0	32660	33005	32881	34013	32770	
2057	0	32634	33091	32747	33485	32863	
2058	0	32664	33055	32743	31476	34181	
2059	0	32844	33165	32784	26991	32809	
2060	0	32978	33137	32798	22806	32331	
2061	0	33021	32595	32822	24157	34102	
2062	0	32954	32519	32733	27543	33097	
2063	0	32962	32288	32733	31993	32165	
2064	0	33021	32061	32787	37403	31201	
2065	0	33020	32323	32845	39167	32923	
2066	0	33020	32717	32732	38507	33213	
2067	0	32898	32717	32775	35284	32423	
2068	0	32772	32877	32850	36619	32551	
2069	0	32726	32849	32886	35175	32484	
2070	0	32680	32853	32845	30822	31879	
2071	0	32666	32768	32820	24583	32112	
2072	0	32648	32367	32799	27283	32903	
2073	0	32593	32300	32775	32738	33055	
2074	0	32539	32353	32729	40519	32933	
2075	0	32546	31975	32658	45314	32543	
2076	0	32448	31932	32588	41121	32488	
2077	0	32621	32595	32473	33683	32457	
2078	0	32763	33311	32561	27072	32603	
2079	0	32820	33466	32649	23028	32925	
2080	0	32800	33351	32643	22425	33273	
2081	0	32848	33811	32642	30101	33671	
2082	0	32579	33873	32663	34769	33655	
2083	0	32716	33179	32640	27496	33106	
2084	0	32843	32854	32717	23459	32635	
2085	0	32804	33205	32727	33444	33134	
2086	0	32820	34274	32749	42397	33102	
2087	0	32857	35095	32743	42677	32939	
2088	0	32533	35745	32762	33970	32910	
2089	0	32437	34987	32813	31890	32983	
2090	0	32459	33095	32811	32980	33051	
2091	0	32732	30605	32809	29756	33174	
2092	0	32957	27910	32697	27755	32627	
2093	0	33034	26799	32639	30206	32537	
2094	0	33064	27225	32624	31878	33250	
2095	0	33061	28807	32794	33931	33270	
2096	0	32809	30818	32722	34043	32827	
2097	0	32800	32233	32609	32873	32831	
2098	0	32809	33927	32706	27681	33160	
2099	0	32638	35065	32716	24407	33093	
2100	0	32586	35202	32583	24925	33021	
2101	0	32653	34767	32682	31709	32996	
2102	0	32707	33331	32718	33975	32871	
2103	0	32638	31719	32879	32866	32594	
2104	0	32756	30626	32799	38352	32762	
2105	0	32824	30848	32680	45568	32071	
2106	0	32772	31891	32690	47661	32511	
2107	0	32775	32997	32825	41509	32907	
2108	0	32573	33923	32827	36973	32379	
2109	0	32583	34123	32833	31022	33438	
2110	0	32632	34047	32768	29270	33325	
2111	0	32799	33855	32747	27483	31867	
2112	0	33040	33050	32813	25725	32831	
2113	0	33109	32350	32757	29415	33373	
2114	0	33142	32109	32630	31439	33321	
2115	0	33152	31635	32543	31765	32657	
2116	0	33001	31410	32439	32941	32737	
2117	0	32868	31751	32454	33761	33152	
2118	0	32964	32231	32543	34344	33039	
2119	0	32904	32587	32655	34366	32495	
2120	0	32878	32873	32730	34099	32409	
2121	0	32666	33279	32751	34039	32886	
2122	0	32741	33279	32775	33799	32297	
2123	0	32667	33259	32813	33524	32719	
2124	0	32489	33434	32847	33167	32821	
2125	0	32507	33450	32707	33103	33163	
2126	0	32457	33877	32771	32925	32679	
2127	0	32390	34283	32839	32803	33252	
2128	0	32408	34399	32832	34615	32589	
2129	0	32421	34052	32851	34098	31815	
2130	0	32520	33319	32845	33653	32484	
2131	0	32609	32902	32812	35847	31867	
2132	0	32770	32487	32695	35163	32402	
2133	0	32955	32287	32775	33533	32391	
2134	0	32908	32617	32624	30957	33035	
2135	0	32924	32891	32534	32283	32993	
2136	0	33040	32711	32583	28575	33585	
2137	0	33181	33200	32547	29359	33287	
2138	0	33240	33134	32599	33217	32834	
2139	0	33208	32466	32719	34905	32898	
2140	0	33050	31651	32711	32821	32738	
2141	0	32908	30887	32594	30758	33053	
2142	0	32740	30793	32568	25461	32952	
2143	0	32691	30695	32646	19567	33229	
2144	0	32690	30773	32665	16227	32706	
2145	0	32775	31737	32821	23762	32733	
2146	0	32545	32355	32914	33908	32934	
2147	0	32568	32653	32880	45476	32801	
2148	0	32834	33586	32847	51408	32164	
2149	0	32858	34672	32823	48701	32388	
2150	0	32756	35174	32843	40165	33091	
2151	0	32553	34568	32903	28812	32745	
2152	0	32648	34071	32791	25445	33311	
2153	0	32793	34518	32535	35747	33272	
2154	0	32967	34123	32403	36710	33137	
2155	0	32989	33085	32525	33157	32908	
2156	0	33154	32377	32557	30630	32849	
2157	0	33020	31022	32647	34355	32790	
2158	0	32920	29613	32792	35066	32864	
2159	0	32784	28793	32749	27904	33261	
2160	0	32669	29300	32745	22393	33241	
2161	0	32573	30018	32707	25319	32737	
2162	0	32388	30611	32821	31211	32573	
2163	0	32485	30597	32810	33299	32882	
2164	0	32544	31314	32740	39013	33023	
2165	0	32640	32215	32829	39325	32967	
2166	0	32829	32822	32910	31435	32648	
2167	0	32855	34256	32899	25274	32784	
2168	0	32891	35352	32815	24722	32387	
2169	0	32722	35399	32729	30623	32549	
2170	0	32775	34943	32775	35481	32089	
2171	0	32629	34110	32701	34631	32550	
2172	0	32648	33055	32661	35184	32868	
2173	0	32797	32659	32637	35197	32525	
2174	0	33001	32445	32527	31664	32505	
2175	0	32996	32847	32619	28651	33094	
2176	0	32941	33479	32775	31206	33384	
2177	0	32933	33685	32751	35671	33759	
2178	0	32812	33057	32813	37695	33519	
2179	0	32977	32624	32835	41700	32410	
2180	0	32873	32041	32820	41859	33055	
2181	0	32818	31563	32766	34951	32401	
2182	0	32930	32242	32763	31349	31339	
2183	0	32883	32868	32839	28186	31623	
2184	0	32720	32861	32767	26458	32093	
2185	0	32880	33299	32632	27567	32809	
2186	0	32969	33575	32624	31047	32729	
2187	0	33026	33599	32605	31347	32789	
2188	0	32860	33437	32621	31257	32917	
2189	0	32676	33060	32665	28885	32986	
2190	0	32504	32369	32743	29823	32925	
2191	0	32627	31711	32577	32647	32931	
2192	0	32496	31652	32658	39693	32739	
2193	0	32662	31773	32775	47687	32643	
2194	0	32512	31954	32717	46086	33060	
2195	0	32701	32007	32691	36086	33379	
2196	0	32648	32758	32835	26480	33287	
2197	0	32476	33783	32837	21531	33331	
2198	0	32550	34864	32775	25515	33466	
2199	0	32737	36638	32775	34244	33111	
2200	0	32484	38274	32997	35541	32788	
2201	0	32510	38199	32983	36383	32775	
2202	0	33065	36011	32893	41860	32882	
2203	0	33389	32697	32643	48880	32673	
2204	0	33444	29737	32289	37074	32392	
2205	0	33328	27860	32061	23900	33214	
2206	0	33266	28482	32253	21273	33123	
2207	0	33027	30948	32573	20322	32839	
2208	0	32914	32969	32605	25376	32366	
2209	0	32804	33561	32678	31111	32386	
2210	0	32613	32391	32827	27717	32711	
2211	0	32480	31461	32676	31708	32729	
2212	0	32496	30439	32739	39158	32912	
2213	0	32803	29979	32841	40839	32661	
2214	0	33360	29972	32730	29949	32749	
2215	0	32924	30365	32832	25765	32552	
2216	0	32736	29323	32551	25184	32855	
2217	0	32517	28381	32571	26047	32848	
2218	0	32568	27931	32805	29442	33157	
2219	0	32533	28502	32825	36410	33117	
2220	0	32358	30518	32845	39539	32807	
2221	0	32282	32518	32899	39038	33037	
2222	0	32356	35009	32652	40099	32666	
2223	0	32472	35470	32703	36739	32735	
2224	0	32556	34675	32744	31574	33279	
2225	0	32601	34695	32801	30471	32953	
2226	0	32765	34414	32765	37115	32803	
2227	0	32880	34240	32759	37287	33070	
2228	0	32900	33847	32743	35659	32701	
2229	0	32930	33586	32886	33813	32650	
2230	0	32882	33257	32890	28650	32755	
2231	0	32827	33287	32620	24681	33131	
2232	0	32824	33490	32641	29011	32963	
2233	0	32792	32976	32722	35371	32576	
2234	0	32890	32643	32753	38151	32805	
2235	0	32935	32769	32743	34493	32512	
2236	0	32809	33777	32747	28779	32612	
2237	0	32831	34659	32703	26791	32525	
2238	0	32902	35588	32645	29846	32982	
2239	0	33130	35569	32749	33653	32945	
2240	0	32979	35155	32722	37895	32866	
2241	0	32963	33922	32738	37883	32547	
2242	0	32904	31683	32952	30389	32795	
2243	0	33044	29821	32985	27637	32961	
2244	0	32878	29360	32800	33381	33200	
2245	0	32677	30260	32690	38451	32644	
2246	0	32635	31897	32693	40231	32360	
2247	0	32659	33278	32717	39347	33174	
2248	0	32696	34397	32743	34387	33530	
2249	0	32548	34803	32775	29097	32724	
2250	0	32456	34288	32807	27182	32499	
2251	0	32480	34010	32818	24195	34229	
2252	0	32578	33167	32765	21586	34743	
2253	0	32687	32869	32514	22995	33646	
2254	0	32741	32822	32487	29956	32484	
2255	0	32839	33333	32390	34679	33111	
2256	0	32841	33873	32327	33985	33183	
2257	0	32758	33898	32339	36288	32214	
2258	0	32751	33093	32525	38951	31321	
2259	0	32851	32769	32620	44511	30292	
2260	0	32913	32875	32660	49584	30373	
2261	0	33095	32958	32843	43629	31592	
2262	0	33120	32213	32762	38467	32717	
2263	0	33126	30185	32595	30784	32435	
2264	0	33124	28523	32755	28576	32807	
2265	0	32857	27843	33057	29538	33795	
2266	0	32656	29259	33065	27989	33564	
2267	0	32711	31300	32868	20525	33298	
2268	0	32730	33319	32723	16721	33828	
2269	0	32786	34168	32704	24062	32533	
2270	0	32586	33846	32484	30023	33422	
2271	0	32667	33595	32463	34311	32927	
2272	0	32626	33583	32608	34818	32390	
2273	0	32583	33457	32721	34531	32719	
2274	0	32582	33221	32855	29191	32731	
2275	0	32667	32111	32903	26469	32739	
2276	0	32792	31141	32876	33327	32828	
2277	0	32819	30768	32717	40810	32763	
2278	0	32882	31660	32859	43170	32580	
2279	0	32886	32850	32705	39469	33162	
2280	0	32992	34240	32662	32733	33117	
2281	0	33029	35207	32674	30874	32757	
2282	0	32988	34375	32553	31651	33344	
2283	0	32765	32743	32653	35248	32877	
2284	0	32737	30429	32775	38087	33179	
2285	0	32664	29111	32757	35929	32619	
2286	0	32622	28967	32775	34823	32735	
2287	0	32680	29673	32769	36318	32775	
2288	0	32736	30855	32773	38838	32818	
2289	0	32612	32246	32853	34541	33163	
2290	0	32510	33894	32872	29927	32860	
2291	0	32717	34468	32821	29869	32479	
2292	0	32784	33735	32771	27827	33050	
2293	0	32711	33048	32805	28581	32975	
2294	0	32640	32527	32658	30078	31664	
2295	0	32666	32877	32512	23706	32560	
2296	0	32693	33799	32513	18747	33700	
2297	0	32720	34193	32710	20679	33451	
2298	0	32752	33917	32863	27023	33278	
2299	0	32996	33982	32927	33087	32799	
2300	0	33069	34322	32867	38919	32078	
2301	0	33001	34295	32749	41377	32275	
2302	0	32864	34448	32768	41842	32869	
2303	0	32775	33821	32940	42154	33104	
2304	0	32824	32549	32897	38161	32951	
2305	0	32760	31127	32726	33557	33057	
2306	0	32764	30149	32507	33830	32551	
2307	0	32774	30419	32498	35865	32709	
2308	0	32726	31187	32492	33383	31751	
2309	0	32820	31474	32689	31423	32583	
2310	0	32855	32839	32813	30349	32993	
2311	0	32624	33799	32707	34084	32873	
2312	0	32676	34107	32689	39431	32406	
2313	0	32568	34401	32765	41822	32617	
2314	0	32608	35055	32654	40249	33357	
2315	0	32510	35821	32528	33511	33735	
2316	0	32785	36530	32672	28237	33225	
2317	0	32696	36791	32747	29319	33031	
2318	0	32725	36159	32740	27534	32301	
2319	0	32839	34885	32659	25350	32023	
2320	0	32981	34690	32761	24552	32262	
2321	0	32994	35229	32685	23197	32064	
2322	0	32882	35253	32599	23747	33072	
2323	0	32906	33755	32675	22689	32720	
2324	0	32550	31126	32807	27645	32831	
2325	0	32371	27762	32860	32091	33899	
2326	0	32562	25084	32857	41240	33165	
2327	0	32868	24298	32851	48184	31815	
2328	0	33124	25425	32715	51623	32435	
2329	0	33060	27861	32557	47749	32579	
2330	0	33162	30031	32581	40122	32639	
2331	0	33302	31704	32752	28780	32364	
2332	0	33161	33069	32839	21712	32837	
2333	0	32749	34159	32892	21951	33505	
2334	0	32608	33959	32887	26205	32883	
2335	0	32642	33567	32899	28458	32911	
2336	0	32613	33362	32703	28523	33393	
2337	0	32628	33637	32736	30903	32793	
2338	0	32673	34015	32858	36215	32635	
2339	0	32635	33731	32813	38253	32681	
2340	0	32615	33607	32663	39233	32627	
2341	0	32845	34502	32620	37210	32863	
2342	0	33082	35990	32634	33257	33082	
2343	0	33004	36377	32610	24847	33444	
2344	0	33004	33851	32508	23363	33363	
2345	0	32889	30939	32518	27106	33070	
2346	0	32717	28306	32595	30308	32903	
2347	0	32665	27606	32678	33254	33261	
2348	0	32598	27959	32895	37547	33693	
2349	0	32678	28580	32902	34911	33049	
2350	0	32630	29172	32813	30877	33009	
2351	0	32844	30883	32750	34166	32989	
2352	0	32964	33222	32839	43490	32107	
2353	0	32800	35250	32899	46635	32321	
2354	0	32660	36926	32850	46419	32669	
2355	0	32594	37143	32805	44954	32716	
2356	0	32592	36311	32747	32145	32706	
2357	0	32598	34770	32608	21372	32395	
2358	0	32604	33261	32557	23828	31947	
2359	0	32764	32013	32685	22987	30583	
2360	0	32642	31875	32867	22314	30930	
2361	0	32688	32305	32957	26728	32184	
2362	0	32767	33241	32848	30507	32525	
2363	0	32673	33960	32805	27292	32767	
2364	0	33040	34449	32753	25373	33327	
2365	0	33068	35344	32593	30239	33695	
2366	0	32896	36559	32526	33843	33308	
2367	0	32905	37651	32351	32974	32215	
2368	0	32768	37653	32384	30215	33345	
2369	0	32548	35875	32361	27503	33618	
2370	0	32690	33303	32400	30474	33131	
2371	0	32766	29718	32656	41840	33646	
2372	0	32784	26372	32816	47419	33588	
2373	0	32928	24626	32925	52545	33073	
2374	0	32997	24837	32823	56327	33243	
2375	0	33090	27442	32881	43300	31857	
2376	0	32978	30098	32806	24386	31100	
2377	0	32716	32405	32740	18827	31392	
2378	0	32549	33035	32792	18970	32395	
2379	0	32444	33158	32815	24722	33277	
2380	0	32372	33903	32815	32263	33278	
2381	0	32391	35299	32825	40282	33166	
2382	0	32513	36594	32919	44580	33076	
2383	0	32512	36775	32819	42503	33267	
2384	0	32440	36422	32703	36321	33081	
2385	0	32774	35706	32666	26714	32611	
2386	0	32891	35015	32710	17950	32942	
2387	0	33038	34848	32751	18249	33055	
2388	0	33076	33084	32749	22983	32893	
2389	0	33012	29043	32850	28201	33271	
2390	0	32864	25113	32882	27939	33679	
2391	0	32927	24547	32775	29054	33363	
2392	0	32902	26573	32741	30255	32961	
2393	0	32868	29661	32850	32038	31936	
2394	0	32717	32466	32871	36016	31899	
2395	0	32698	33825	32775	40878	32262	
2396	0	32742	34624	32659	43344	32964	
2397	0	32839	35165	32633	41119	33180	
2398	0	32868	34649	32731	37041	33498	
2399	0	32549	34166	32722	36241	33243	
2400	0	32416	33639	32606	37000	32803	
2401	0	32655	33983	32642	35980	32435	
2402	0	32722	33831	32741	35009	32490	
2403	0	32775	33753	32833	36626	32763	
2404	0	32741	34983	32775	37773	32833	
2405	0	32745	36132	32728	32027	32736	
2406	0	32658	35670	32707	25523	32883	
2407	0	32628	35278	32616	19444	32724	
2408	0	32582	34670	32647	13724	32504	
2409	0	32614	33266	32513	16806	32325	
2410	0	32601	31789	32631	24234	33001	
2411	0	32836	31452	32769	34354	33536	
2412	0	33179	31804	32889	37407	33305	
2413	0	32881	32434	32938	40357	33216	
2414	0	33046	32630	32757	42983	33307	
2415	0	33126	32015	32787	39233	32467	
2416	0	33081	32033	32668	37661	32475	
2417	0	32890	30747	32573	42471	32669	
2418	0	32856	30475	32477	43247	33126	
2419	0	32962	28903	32583	40599	32936	
2420	0	32898	27821	32634	37595	32667	
2421	0	32860	28935	32801	31249	32853	
2422	0	32740	31704	32667	26680	32671	
2423	0	32856	34392	32679	24977	32192	
2424	0	32744	35980	32688	20575	32836	
2425	0	32774	36210	32611	25417	32838	
2426	0	32880	34770	32426	31919	33205	
2427	0	32912	32297	32468	37923	32795	
2428	0	32872	30986	32624	38144	32558	
2429	0	32750	30872	32775	25512	33496	
2430	0	32693	31781	32875	14784	33759	
2431	0	32991	32931	32863	15604	32557	
2432	0	32955	33190	32922	25746	31736	
2433	0	32570	33699	32891	36452	33737	
2434	0	32651	34322	32865	46738	34368	
2435	0	32576	35244	32916	55325	32576	
2436	0	32521	35847	32902	55553	31926	
2437	0	32607	34851	32881	43621	34055	
2438	0	32556	33006	32844	30842	34674	
2439	0	32554	31277	32925	27707	33065	
2440	0	32656	30565	32791	25688	33110	
2441	0	32749	32069	32758	25086	33415	
2442	0	32755	33917	32617	28688	32581	
2443	0	32754	35061	32612	30956	31487	
2444	0	32870	35223	32623	29681	31239	
2445	0	32985	34103	32630	28679	32151	
2446	0	33049	32904	32687	30751	32002	
2447	0	32937	31275	32690	33321	30394	
2448	0	32905	29983	32843	29136	28454	
2449	0	32835	28869	32890	28346	28760	
2450	0	32888	27785	32976	32881	31459	
2451	0	32905	27609	32899	38055	32882	
2452	0	32792	28038	32725	40800	33793	
2453	0	32673	28553	32563	43054	34113	
2454	0	32853	29311	32489	39814	33470	
2455	0	32960	30797	32525	29649	33927	
2456	0	32922	32285	32643	24263	33975	
2457	0	32843	32475	32621	29120	33340	
2458	0	32822	32539	32665	33485	32941	
2459	0	32797	32751	32694	34235	33018	
2460	0	32696	32442	32775	30797	33642	
2461	0	32786	32173	32832	26462	34495	
2462	0	32905	32829	32706	23885	33975	
2463	0	32961	34107	32567	24781	33159	
2464	0	32876	35479	32568	30338	33430	
2465	0	32712	36272	32582	39544	33514	
2466	0	32828	35750	32602	53226	32795	
2467	0	32850	34766	32632	58785	33223	
2468	0	32869	34937	32654	53696	33155	
2469	0	32872	35586	32681	30559	33545	
2470	0	32917	35888	32786	17080	33004	
2471	0	32917	35708	32726	13730	32600	
2472	0	32985	35041	32720	17586	33120	
2473	0	32818	34285	32663	27091	33248	
2474	0	32765	33282	32775	26786	32541	
2475	0	32868	32703	32736	22568	32455	
2476	0	32711	32257	32671	25061	32591	
2477	0	32889	32706	32735	30685	33007	
2478	0	32748	32864	32760	35544	31975	
2479	0	32730	32727	32796	38719	32414	
2480	0	32617	32685	32853	35698	32642	
2481	0	32424	32483	32713	39684	32430	
2482	0	32456	32224	32763	43874	33287	
2483	0	32258	32605	33001	42519	33287	
2484	0	32205	33402	33059	37099	32965	
2485	0	32368	34075	32920	37667	32807	
2486	0	32406	34247	32871	36335	32135	
2487	0	32464	33726	32821	30196	32695	
2488	0	32364	33682	32805	26681	32262	
2489	0	32295	34371	32661	29664	32827	
2490	0	32297	34433	32730	31331	32893	
2491	0	32329	34303	32677	29691	33037	
2492	0	32400	32664	32731	33922	33136	
2493	0	32649	29999	32807	37895	32871	
2494	0	33008	27303	32894	34010	33124	
2495	0	32996	25753	32731	31763	32559	
2496	0	32886	26503	32643	28673	32611	
2497	0	32921	29127	32682	27975	32352	
2498	0	33146	31969	32723	25440	32114	
2499	0	33060	34311	32661	27192	32135	
2500	0	33092	35819	32711	29658	32301	
2501	0	33133	35264	32792	32805	32221	
2502	0	33078	32841	32868	37408	32501	
2503	0	32907	30603	33039	37913	33430	
2504	0	32724	29266	32989	37242	33415	
2505	0	32742	29303	32963	36720	33533	
2506	0	32808	30874	32727	37275	33683	
2507	0	32948	32997	32662	33442	33141	
2508	0	32980	34887	32544	27821	32873	
2509	0	33052	36665	32505	29871	33178	
2510	0	32758	37540	32507	33612	33022	
2511	0	32698	37551	32509	34710	33227	
2512	0	32784	35994	32535	33670	33715	
2513	0	32922	33216	32448	35685	33108	
2514	0	33025	29625	32613	37611	30816	
2515	0	33150	26597	32657	35883	31952	
2516	0	33044	25572	32741	32592	33607	
2517	0	32850	26421	32675	30800	33211	
2518	0	32793	29023	32711	29677	32647	
2519	0	32750	31465	32731	25839	33192	
2520	0	32688	32775	32775	26503	32991	
2521	0	32886	33977	32807	30262	33428	
2522	0	32833	35897	32807	33644	33430	
2523	0	32801	36720	32765	30407	31550	
2524	0	32628	37023	32825	28899	31119	
2525	0	32572	35991	32717	28007	30834	
2526	0	32685	34358	32775	29294	32086	
2527	0	32613	33142	32902	34210	32893	
2528	0	32572	32353	32902	41259	32711	
2529	0	32676	31765	32773	43911	33019	
2530	0	33036	31575	32617	39191	32477	
2531	0	32845	31936	32612	30276	32683	
2532	0	32633	33171	32706	27847	33300	
2533	0	32548	34938	32687	30095	33049	
2534	0	32485	36214	32743	35495	32755	
2535	0	32350	36330	32736	36434	33112	
2536	0	32472	35218	32741	34717	34278	
2537	0	32917	33792	32869	37879	34470	
2538	0	32930	32263	32754	37063	34450	
2539	0	32958	31207	32698	34279	33892	
2540	0	33203	29842	32850	30584	33577	
2541	0	33324	29510	32967	32925	31751	
2542	0	33160	31261	32713	27320	30873	
2543	0	32870	32938	32570	21862	31511	
2544	0	32899	34576	32527	19992	32953	
2545	0	33072	35333	32564	28807	32862	
2546	0	32977	34414	32680	37825	32125	
2547	0	32904	32334	32647	45090	32909	
2548	0	32809	30467	32699	44197	33981	
2549	0	32640	30233	32681	37509	34091	
2550	0	32405	30983	32760	30363	33278	
2551	0	32528	31063	32775	29527	32932	
2552	0	32792	30486	32734	26771	32386	
2553	0	32652	28869	32642	24017	30701	
2554	0	32676	27385	32633	28533	30800	
2555	0	32784	28020	32546	34605	33052	
2556	0	32832	30575	32520	33722	34077	
2557	0	32712	32797	32494	28300	33389	
2558	0	32719	34088	32755	30975	32475	
2559	0	32501	33989	32896	34247	33103	
2560	0	32440	33913	32843	39515	33522	
2561	0	32460	34680	32893	43914	33362	
2562	0	32666	36107	32931	44783	32899	
2563	0	32861	37708	32914	35888	33216	
2564	0	32824	39596	32930	27226	33634	
2565	0	32794	40903	32937	25578	33385	
2566	0	32825	40684	33068	29303	32943	
2567	0	32980	38791	32987	29155	33088	
2568	0	32888	33536	32922	25852	33616	
2569	0	32752	26631	32893	26709	34258	
2570	0	32760	21781	32775	32919	31182	
2571	0	32948	20901	32528	38284	29183	
2572	0	32882	24363	32308	39399	31327	
2573	0	32841	27824	32477	35867	32356	
2574	0	32711	30667	32623	33823	33366	
2575	0	32661	32593	32631	34201	32899	
2576	0	32706	33775	32631	33659	32455	
2577	0	32813	33678	32611	28679	32288	
2578	0	32760	32717	32683	25876	33233	
2579	0	32608	31852	32893	30165	32662	
2580	0	32704	32013	32898	34611	33491	
2581	0	32578	33115	32873	37681	32966	
2582	0	32598	34147	32831	34690	33303	
2583	0	32624	34505	32789	32969	32583	
2584	0	32827	34865	32795	30979	31936	
2585	0	32890	34834	32775	29835	32078	
2586	0	32907	35065	32693	31511	33007	
2587	0	33000	35127	32640	34447	33211	
2588	0	33133	35191	32465	37479	33250	
2589	0	33005	34986	32610	39465	33009	
2590	0	32954	34607	32653	37261	32804	
2591	0	32981	33949	32792	30554	32925	
2592	0	32954	33320	32701	24907	33275	
2593	0	32761	32211	32661	27227	33099	
2594	0	32628	31867	32683	30407	32987	
2595	0	32765	31879	32815	32319	32201	
2596	0	32690	31841	32721	33159	32245	
2597	0	32743	32036	32771	33430	32708	
2598	0	32572	31931	32722	32733	32477	
2599	0	32563	31787	32774	32626	32195	
2600	0	32600	32089	32685	32699	32705	
2601	0	32546	32387	32743	33360	33137	
2602	0	32560	32481	32723	34281	33283	
2603	0	32751	32847	32707	34967	33456	
2604	0	32691	32851	32731	35847	33863	
2605	0	32717	32613	32701	32367	33534	
2606	0	32486	32609	32573	31550	33111	
2607	0	32464	32295	32626	36516	33582	
2608	0	32402	32431	32737	42310	33349	
2609	0	32789	32611	32833	43374	32477	
2610	0	33106	32931	32871	43311	32815	
2611	0	33106	33716	32947	35843	32788	
2612	0	33321	34181	32905	20961	33223	
2613	0	33208	33784	32834	10342	32800	
2614	0	32908	33522	32825	13573	32445	
2615	0	32770	33437	32737	26845	33683	
2616	0	32832	33306	32710	40376	32770	
2617	0	32907	33006	32615	45319	33031	
2618	0	32875	31969	32549	40376	33376	
2619	0	32819	31064	32549	28340	32192	
2620	0	32812	30245	32642	19445	32365	
2621	0	32647	29575	32784	22339	33124	
2622	0	32724	29938	32834	30438	32052	
2623	0	32764	30363	32815	36295	32118	
2624	0	32885	31365	32809	39741	32448	
2625	0	32905	32165	32804	41854	32679	
2626	0	32720	33267	32699	39193	33517	
2627	0	32744	34352	32821	36313	33489	
2628	0	32914	35119	32730	36447	33093	
2629	0	32946	34735	32647	41440	33330	
2630	0	32644	33467	32583	44103	32831	
2631	0	32536	32085	32699	35670	32438	
2632	0	32578	32236	32725	22840	32400	
2633	0	32444	33442	32701	21271	31937	
2634	0	32467	34810	32662	25070	32174	
2635	0	32556	36181	32774	32602	32775	
2636	0	32815	36781	32948	39853	33089	
2637	0	33002	35568	32888	40665	32421	
2638	0	33076	32377	32881	25458	32780	
2639	0	33097	29472	32839	9047	32952	
2640	0	33223	27361	32728	12926	33248	
2641	0	33286	26614	32663	26766	32888	
2642	0	33154	27856	32598	36455	32052	
2643	0	32957	29667	32573	40406	31465	
2644	0	32786	31602	32590	40755	32023	
2645	0	32763	33397	32671	41359	32575	
2646	0	32426	34007	32767	38119	32835	
2647	0	32482	33951	32739	32704	32775	
2648	0	32541	33255	32763	31549	32373	
2649	0	32589	32255	32803	32981	33071	
2650	0	32668	32348	32603	35181	33231	
2651	0	32820	32848	32443	34055	33015	
2652	0	32912	33423	32347	33661	33095	
2653	0	32745	34311	32549	33959	32621	
2654	0	32640	35569	32617	34955	33126	
2655	0	32440	37154	32762	37269	32859	
2656	0	32512	37495	32801	38598	32514	
2657	0	32407	35783	32662	38611	32699	
2658	0	32564	33299	32579	35543	33031	
2659	0	32708	30673	32521	32498	32873	
2660	0	32751	30367	32619	29781	33168	
2661	0	32690	31329	32807	24703	33615	
2662	0	32686	32135	32925	23175	33222	
2663	0	32768	31493	32955	27257	31994	
2664	0	32842	30490	32975	32395	32930	
2665	0	32817	28743	32967	35809	33883	
2666	0	32962	29005	32898	38746	34370	
2667	0	33043	31629	32775	39525	33567	
2668	0	33068	33574	32818	34593	33932	
2669	0	32975	35718	32793	27462	33351	
2670	0	32898	37844	32838	31696	31808	
2671	0	32937	38305	32801	39265	30846	
2672	0	32958	37020	32839	40952	29074	
2673	0	32722	32978	32827	39990	30580	
2674	0	32648	28256	32674	35672	31940	
2675	0	32969	24613	32601	28061	32720	
2676	0	33198	23209	32891	23452	34705	
2677	0	33096	24725	32877	24050	34475	
2678	0	33033	27907	32829	29155	32829	
2679	0	32905	31196	32859	31589	32902	
2680	0	32867	34055	32883	32571	33831	
2681	0	32647	35685	32686	31645	33357	
2682	0	32506	37053	32693	28958	32446	
2683	0	32362	37407	32701	28806	32455	
2684	0	32659	36322	32627	28147	32308	
2685	0	32617	35589	32594	29403	31354	
2686	0	32315	34595	32647	31279	31659	
2687	0	32312	32953	32759	31369	32263	
2688	0	32302	32199	32617	31901	32661	
2689	0	32583	31947	32617	30775	33129	
2690	0	32664	31912	32761	33946	33235	
2691	0	32659	32610	32774	35271	32817	
2692	0	32692	33042	32835	36766	33535	
2693	0	32784	33335	32850	36084	33413	
2694	0	32889	33312	32767	39930	33237	
2695	0	32632	33153	32731	44591	32650	
2696	0	32681	33005	32641	48187	31533	
2697	0	32912	33267	32475	44250	32623	
2698	0	33056	34576	32566	38951	33890	
2699	0	33197	35811	32522	28418	33600	
2700	0	32996	36736	32574	20487	33549	
2701	0	32822	36295	32610	24307	33366	
2702	0	32804	34585	32768	24793	33021	
2703	0	32597	31534	32754	21049	32608	
2704	0	32490	28807	32660	15209	33450	
2705	0	32638	28359	32672	13934	33390	
2706	0	32544	29566	32850	23398	32950	
2707	0	32625	30424	32736	43000	32928	
2708	0	32800	30832	32684	55680	32821	
2709	0	32740	31501	32702	61133	32749	
2710	0	32981	33120	32677	49082	32837	
2711	0	33091	34837	32809	27204	33085	
2712	0	33074	34899	32879	19357	32658	
2713	0	33180	34139	32885	26648	32689	
2714	0	32745	33671	32819	33193	32689	
2715	0	33085	33266	32679	33477	32427	
2716	0	33050	32947	32668	28135	32243	
2717	0	32868	33030	32551	21487	32084	
2718	0	32938	32813	32453	26413	32322	
2719	0	33008	31310	32281	36698	32463	
2720	0	32548	29346	32487	40615	32552	
2721	0	32592	28878	32592	41023	32883	
2722	0	32694	29462	32672	37605	33042	
2723	0	32653	31175	32549	28713	33024	
2724	0	32768	33307	32639	25056	32855	
2725	0	32756	34951	32701	28469	33257	
2726	0	32673	36327	32765	32682	33902	
2727	0	32582	36214	32661	32309	33196	
2728	0	32753	33895	32721	32293	32941	
2729	0	32766	30695	32753	33230	32614	
2730	0	32548	28199	32654	33905	32592	
2731	0	32583	27427	32574	34651	32861	
2732	0	32658	29126	32511	34647	32925	
2733	0	32525	31628	32687	34853	32793	
2734	0	32496	33557	32813	34287	33451	
2735	0	32701	35203	32903	33287	32755	
2736	0	32868	36218	32919	33653	32567	
2737	0	32790	36207	32898	35095	32955	
2738	0	32669	35049	32937	37839	32421	
2739	0	32552	33047	33034	35009	32419	
2740	0	32482	30259	33005	30715	33057	
2741	0	32611	29395	32793	27188	32775	
2742	0	32637	30561	32588	28921	33978	
2743	0	32984	32703	32624	33743	33984	
2744	0	33026	34536	32710	43944	33764	
2745	0	33224	36167	32804	45536	31939	
2746	0	33412	37432	32744	35911	32805	
2747	0	33130	38820	32630	29465	33456	
2748	0	32902	37558	32597	25803	33178	
2749	0	33074	35006	32617	25922	33151	
2750	0	33097	31367	32715	25129	32043	
2751	0	32938	27777	32829	26458	33055	
2752	0	32964	25730	32993	32173	32904	
2753	0	33017	27091	32978	37682	31994	
2754	0	32690	30820	32807	39739	32527	
2755	0	32548	35847	32745	34022	32850	
2756	0	32710	41040	32928	26984	32672	
2757	0	32684	40879	33049	28906	32009	
2758	0	32616	35013	32718	35832	33077	
2759	0	32775	27365	32579	38215	33116	
2760	0	33019	22547	32559	36540	32603	
2761	0	33270	21809	32555	30086	32800	
2762	0	33188	23759	32639	24145	32281	
2763	0	32929	26210	32720	20138	31872	
2764	0	32736	28412	32665	22887	32865	
2765	0	32821	31462	32662	30625	33497	
2766	0	32883	34169	32775	37286	33369	
2767	0	32506	35478	32877	41134	33843	
2768	0	32297	35687	32827	41448	33719	
2769	0	32337	35620	32871	42765	32416	
2770	0	32410	36229	32824	38936	31504	
2771	0	32468	37059	32839	34243	32134	
2772	0	32229	37959	32919	31580	32729	
2773	0	32381	38175	32805	29351	32287	
2774	0	32658	37887	32640	27939	32647	
2775	0	33041	38113	32737	24214	33186	
2776	0	32972	38031	32662	21450	32085	
2777	0	32832	36265	32729	26380	32455	
2778	0	32589	33526	32669	31522	32807	
2779	0	32480	30345	32723	34541	32703	
2780	0	32355	27607	32656	35990	32415	
2781	0	32660	25552	32735	36487	32711	
2782	0	32876	25620	32945	32455	33104	
2783	0	33304	28190	32828	30701	33259	
2784	0	33479	32056	32846	32627	32917	
2785	0	33430	35597	32775	36329	32027	
2786	0	33148	37046	32590	37189	32035	
2787	0	33056	36704	32417	39900	34177	
2788	0	32953	35436	32157	47152	35384	
2789	0	33092	33495	32239	51088	35215	
2790	0	33280	30584	32537	42080	33344	
2791	0	33016	28504	32717	36299	31823	
2792	0	32655	29215	32821	36619	31109	
2793	0	32555	32365	32933	26114	30864	
2794	0	32634	35541	32889	16900	30724	
2795	0	32493	36357	32808	20065	32125	
2796	0	32449	36863	32786	24353	32327	
2797	0	32440	37095	32711	27157	33036	
2798	0	32789	36299	32682	27181	33503	
2799	0	32994	32723	32718	27355	33253	
2800	0	32537	28918	32902	28697	33287	
2801	0	32528	26128	33072	33274	32607	
2802	0	32813	25669	32929	36802	32240	
2803	0	32736	26160	32861	37634	31973	
2804	0	32792	27418	32891	36566	32583	
2805	0	32666	29317	32770	31002	33402	
2806	0	32576	31488	32664	25040	33351	
2807	0	32387	32723	32853	21389	33628	
2808	0	32169	33567	32867	26332	33390	
2809	0	32251	34392	32701	35746	33082	
2810	0	32464	36045	32742	47310	33121	
2811	0	32356	37891	32880	58100	33300	
2812	0	32700	39965	33006	58918	33132	
2813	0	32896	40141	32830	55861	32541	
2814	0	33056	37656	32628	32272	34040	
2815	0	33095	33548	32546	12018	33666	
2816	0	33252	30607	32607	9778	32187	
2817	0	33255	29232	32601	16871	32288	
2818	0	33136	28191	32633	21730	32555	
2819	0	33064	27263	32630	23650	32434	
2820	0	33088	26383	32738	23242	32841	
2821	0	33066	26359	32687	28145	33258	
2822	0	32861	28034	32641	33479	33105	
2823	0	32737	30923	32722	34983	32421	
2824	0	32654	34189	32803	35595	33053	
2825	0	32484	36211	32791	34039	33039	
2826	0	32339	36423	32836	28905	32398	
2827	0	32392	36726	32885	29609	32384	
2828	0	32316	36695	32861	36728	32678	
2829	0	32377	36780	32917	46590	31905	
2830	0	32532	36986	32839	54658	31820	
2831	0	32808	36799	32737	58567	32057	
2832	0	32837	34754	32648	51963	32504	
2833	0	33066	30771	32622	31014	33111	
2834	0	33211	27296	32546	16596	32766	
2835	0	33202	26469	32729	12019	32707	
2836	0	33194	28202	32797	21890	33712	
2837	0	32937	31061	32911	30067	33054	
2838	0	32704	32999	32879	32153	32635	
2839	0	32732	34495	32761	35087	33119	
2840	0	32621	35248	32703	36525	32755	
2841	0	32431	35309	32775	35604	32775	
2842	0	32400	35600	32743	33255	32982	
2843	0	32507	35793	32601	29161	33172	
2844	0	32839	35506	32531	27622	32568	
2845	0	33074	34751	32593	30164	32992	
2846	0	33247	34326	32536	34567	32251	
2847	0	33165	32898	32520	33376	32078	
2848	0	33069	31277	32583	31331	33090	
2849	0	33015	29767	32572	32949	33046	
2850	0	33097	28600	32677	27894	33160	
2851	0	32933	28503	32545	26514	32163	
2852	0	32734	30201	32658	30015	32451	
2853	0	32745	32519	33017	32861	33193	
2854	0	32596	33562	32992	36242	32812	
2855	0	32569	32552	32775	35727	32150	
2856	0	32555	31491	32461	32966	33015	
2857	0	32590	31037	32397	33816	33767	
2858	0	32722	32263	32592	36270	33069	
2859	0	32928	33615	32749	35989	33422	
2860	0	32825	33664	32818	37453	34298	
2861	0	32685	33573	32729	42942	34842	
2862	0	32456	34145	32705	44679	34289	
2863	0	32489	34991	32839	40134	33514	
2864	0	32616	35710	32745	33478	32325	
2865	0	32941	34852	32739	30286	31878	
2866	0	32824	33246	32698	25194	31225	
2867	0	32604	31269	32678	20912	30362	
2868	0	32640	29703	32741	18846	30604	
2869	0	32889	29350	32819	22619	32327	
2870	0	33238	30103	32762	23145	33103	
2871	0	33512	30855	32677	25527	32719	
2872	0	33684	31348	32493	28509	33390	
2873	0	33542	31792	32464	32610	33839	
2874	0	33298	32134	32798	37501	32821	
2875	0	32872	32334	32871	40197	33718	
2876	0	32430	33557	32861	40791	33652	
2877	0	32201	34431	32816	38911	33078	
2878	0	32164	34471	32927	36541	33237	
2879	0	32202	34362	32859	33133	33403	
2880	0	32166	34195	32795	33115	33877	
2881	0	31885	32718	32729	34483	33733	
2882	0	31940	31064	32687	36559	33698	
2883	0	32186	30258	32753	39641	31346	
2884	0	32468	32217	32737	37361	30417	
2885	0	32752	34759	32721	36527	29846	
2886	0	32796	36679	32589	38126	30483	
2887	0	32807	37771	32765	33883	33265	
2888	0	32857	38177	32775	31588	33922	
2889	0	32724	38439	32797	30105	34580	
2890	0	32730	37530	32864	26559	34371	
2891	0	32853	36629	32906	22413	33979	
2892	0	32946	33863	32886	22688	33591	
2893	0	33211	29535	32875	24468	32371	
2894	0	33362	24788	32852	27165	32120	
2895	0	33362	21963	32839	32448	30065	
2896	0	33203	22530	32727	38056	30544	
2897	0	33128	26040	32903	38645	32827	
2898	0	32933	30169	32943	35779	33585	
2899	0	32650	34172	33069	32285	34023	
2900	0	32570	37139	32902	32339	33714	
2901	0	32500	37575	32605	37319	32891	
2902	0	32559	35640	32508	42848	32909	
2903	0	32729	31507	32444	44918	33035	
2904	0	32792	27555	32572	41131	32246	
2905	0	32944	26220	32855	32040	32774	
2906	0	33088	28066	32856	20939	33240	
2907	0	33082	30706	32809	15261	32589	
2908	0	32833	33101	32793	18896	33030	
2909	0	32557	35082	32786	28450	33216	
2910	0	32544	35527	32736	39707	32631	
2911	0	32544	35561	32688	49727	32114	
2912	0	32785	35661	32609	46080	32615	
2913	0	32904	36132	32629	32992	32896	
2914	0	32846	35930	32579	22786	33192	
2915	0	32883	35266	32583	24235	32646	
2916	0	32723	34837	32709	29093	32495	
2917	0	32577	33521	32635	32071	32301	
2918	0	32600	31635	32573	33823	32967	
2919	0	32652	30252	32617	35824	33499	
2920	0	32914	29793	32571	37188	33785	
2921	0	32873	30377	32611	37167	32952	
2922	0	32849	30929	32590	31871	32480	
2923	0	32818	31194	32820	26876	32740	
2924	0	32710	31976	33183	30296	32541	
2925	0	32570	34370	33215	34637	32632	
2926	0	32523	35730	33146	39615	32560	
2927	0	32649	36167	32975	43207	32477	
2928	0	32880	34755	32955	38586	32711	
2929	0	33107	33605	32805	31438	33356	
2930	0	32967	33936	32611	25895	33596	
2931	0	32876	34967	32553	22273	32097	
2932	0	32825	34919	32525	21247	32775	
2933	0	32796	33891	32442	24423	32755	
2934	0	32973	31984	32384	31136	33171	
2935	0	32980	30663	32438	34499	32799	
2936	0	32839	29067	32127	34413	32507	
2937	0	32909	28570	32103	34784	33209	
2938	0	32980	28295	32337	35679	32811	
2939	0	32929	29125	32570	32426	32757	
2940	0	32821	30384	32617	28012	32801	
2941	0	32730	31141	32743	30752	33287	
2942	0	32808	31207	32775	35415	32544	
2943	0	33031	31512	33007	37732	33143	
2944	0	32712	31708	32898	38275	33011	
2945	0	32487	32835	32836	44120	32384	
2946	0	32664	34899	32893	48741	32307	
2947	0	33051	37580	33010	44701	32875	
2948	0	33184	39587	32813	40640	33165	
2949	0	33261	39449	32741	30342	32559	
2950	0	32944	37409	32586	16019	32980	
2951	0	32759	34090	32625	15191	33267	
2952	0	32883	30856	32640	24760	32212	
2953	0	32792	27817	32594	34088	32109	
2954	0	32774	26953	32580	41723	33347	
2955	0	32684	29086	32792	42963	32507	
2956	0	32482	30977	32790	38166	32425	
2957	0	32356	32094	32694	24876	32500	
2958	0	32146	32848	32701	13796	32904	
2959	0	32028	33267	32774	15532	32119	
2960	0	31988	33165	32775	30058	32518	
2961	0	32200	33146	32773	39836	32442	
2962	0	32484	32327	32853	42977	33131	
2963	0	32711	31875	32770	40759	33113	
2964	0	33068	32091	32636	36449	32965	
2965	0	32952	32899	32624	29217	33390	
2966	0	32827	33287	32839	28354	33341	
2967	0	32793	33767	32802	32000	32484	
2968	0	32700	33708	32719	39186	32041	
2969	0	32536	33434	32751	43218	32909	
2970	0	32601	34066	32839	39653	33059	
2971	0	32812	34381	32805	29942	33136	
2972	0	32994	33978	32809	20088	33210	
2973	0	33179	33836	32611	21551	32993	
2974	0	33132	34015	32573	26147	33129	
2975	0	33237	34669	32623	28413	32612	
2976	0	32993	35822	32613	28693	32379	
2977	0	32688	35503	32615	30230	32486	
2978	0	32571	34279	32688	30802	31751	
2979	0	32432	32220	32829	32967	34147	
2980	0	32633	29773	32823	34603	33726	
2981	0	32821	28277	32649	36350	32689	
2982	0	32902	28085	32644	38693	32699	
2983	0	32870	28869	32754	40652	32051	
2984	0	32994	31219	32775	40391	32430	
2985	0	32784	33019	32688	35538	32767	
2986	0	32711	34483	32479	31077	31579	
2987	0	32642	34988	32583	30339	32175	
2988	0	32632	33427	32571	33287	32696	
2989	0	32909	31109	32699	39874	33195	
2990	0	32883	30041	32839	39520	32679	
2991	0	32839	30087	33157	34823	32917	
2992	0	32856	30959	33321	31209	33999	
2993	0	32857	31451	33199	29755	33466	
2994	0	32704	32177	33155	29786	32517	
2995	0	32706	33302	32932	33127	32553	
2996	0	32541	33652	32759	40415	32100	
2997	0	32630	34203	32691	40742	31977	
2998	0	32816	34823	32679	35984	33237	
2999	0	32990	35066	32619	30992	33166	
3000	0	33129	35528	32626	26242	33426	
3001	0	33080	34951	32605	21398	33257	
3002	0	32942	34765	32619	20438	33775	
3003	0	32873	33378	32761	25436	33561	
3004	0	32361	31547	32627	27623	33351	
3005	0	32052	29243	32415	31805	33252	
3006	0	32343	29175	32482	33606	33063	
3007	0	32642	30627	32647	36058	32732	
3008	0	32984	32929	32743	36487	32722	
3009	0	33250	34071	32729	34306	33287	
3010	0	33037	32891	32653	35626	33012	
3011	0	32973	31441	32579	37949	32343	
3012	0	33055	31355	32557	40327	33018	
3013	0	33128	31983	32587	38268	31575	
3014	0	33248	33190	32656	35546	32133	
3015	0	33072	32612	32631	30896	32171	
3016	0	32758	30535	32556	29999	32471	
3017	0	32480	28787	32743	32919	32863	
3018	0	32368	28259	32969	35334	32613	
3019	0	32337	28239	32994	35931	32487	
3020	0	32502	29363	32871	34777	32993	
3021	0	32500	31239	32765	37374	33199	
3022	0	32612	33689	32647	38784	33479	
3023	0	32758	36706	32680	34132	33765	
3024	0	32548	38018	32692	17370	33328	
3025	0	32300	37437	32765	12216	33718	
3026	0	32416	35666	32581	22081	33625	
3027	0	32240	34702	32562	34795	33283	
3028	0	32577	35627	32658	40571	32617	
3029	0	32848	37799	32625	39033	32629	
3030	0	32964	39237	32722	36159	32678	
3031	0	33304	37779	32705	26603	31938	
3032	0	33183	33074	32817	23383	32724	
3033	0	33138	27300	32962	28151	32957	
3034	0	33380	24933	32934	29801	33337	
3035	0	33509	26891	32925	30872	32630	
3036	0	33553	30202	32897	36322	32285	
3037	0	33336	32955	32679	39139	32011	
3038	0	33410	33596	32627	35937	32807	
3039	0	33200	32377	32581	31154	33219	
3040	0	32758	30479	32601	32209	32985	
3041	0	32531	29679	32685	36383	32729	
3042	0	32279	29489	32839	40878	33693	
3043	0	32216	30834	32889	42533	34043	
3044	0	32480	33056	32754	40019	33581	
3045	0	32596	34851	32739	35847	32374	
3046	0	32628	35951	32890	28543	31947	
3047	0	32435	36330	32828	20577	31444	
3048	0	32115	35554	32791	20556	30313	
3049	0	32217	35207	32754	26909	32095	
3050	0	32205	35706	32751	31990	32967	
3051	0	32444	36050	32784	36679	32590	
3052	0	32596	34623	32775	36690	32308	
3053	0	32765	31534	32805	34299	32735	
3054	0	32832	27605	32753	33904	33287	
3055	0	32820	26811	32656	34441	33076	
3056	0	32784	28626	32583	38617	33607	
3057	0	32960	31711	32662	39890	32979	
3058	0	33152	34587	32562	35828	32998	
3059	0	33368	35885	32602	31455	33264	
3060	0	33464	36320	32609	31994	33045	
3061	0	33182	35982	32650	28437	33513	
3062	0	33016	35301	32367	23158	33217	
3063	0	33024	35616	32295	26523	32922	
3064	0	32904	36073	32263	33608	33008	
3065	0	32760	35684	32395	42021	32726	
3066	0	32898	33881	32617	43115	32359	
3067	0	32982	30881	32716	42554	32171	
3068	0	33020	27973	32820	39231	31961	
3069	0	33210	25808	32790	33775	31746	
3070	0	33176	25095	32893	32447	32933	
3071	0	32949	26135	32813	31349	33479	
3072	0	32756	28752	32735	32704	32987	
3073	0	32518	31345	32860	33517	32667	
3074	0	32481	33155	32820	29773	32454	
3075	0	32256	33884	32711	24013	33285	
3076	0	32028	34230	32729	24445	33165	
3077	0	31943	34875	32701	27172	32517	
3078	0	31916	36311	32829	29933	32505	
3079	0	32176	38057	32890	26146	32516	
3080	0	32400	38354	32866	21162	32898	
3081	0	32481	37383	32919	23739	33223	
3082	0	32568	34395	32834	30915	33062	
3083	0	32727	30557	33151	39689	32880	
3084	0	32826	27436	33159	45106	32694	
3085	0	32715	25709	33095	43198	32992	
3086	0	32672	25860	32957	34028	32566	
3087	0	32704	28289	32961	29905	33263	
3088	0	32859	32327	32937	33616	33953	
3089	0	32888	34690	32854	32031	32996	
3090	0	32966	36603	32907	31961	33601	
3091	0	32898	38815	32775	32293	31298	
3092	0	32890	39934	32756	32224	32301	
3093	0	33081	39281	32691	33491	33319	
3094	0	33107	35261	32696	32198	32706	
3095	0	33132	28949	32669	32483	32438	
3096	0	33136	22766	32632	32698	33353	
3097	0	33266	21530	32685	37087	33949	
3098	0	33320	23774	32661	37754	33223	
3099	0	33158	27087	32711	35949	32795	
3100	0	32963	29536	32674	36323	33931	
3101	0	32848	31968	32669	32637	32261	
3102	0	32850	33604	32592	28165	31971	
3103	0	32656	34823	32643	27197	31564	
3104	0	32346	35281	32743	29261	31649	
3105	0	32313	35635	32807	31934	32514	
3106	0	32384	35662	32865	35346	32618	
3107	0	32301	36167	32850	38038	32985	
3108	0	32563	37177	32703	37216	33147	
3109	0	32666	37776	32744	33399	33165	
3110	0	32656	38407	32819	25813	33110	
3111	0	32761	38077	32909	23175	33490	
3112	0	32793	36101	32809	29433	33367	
3113	0	32634	33991	32833	38720	33072	
3114	0	32795	31823	32767	42130	33976	
3115	0	32722	30301	32730	37365	34119	
3116	0	32649	30406	32525	29649	34578	
3117	0	32795	31369	32381	24989	33089	
3118	0	32824	31926	32263	25621	31906	
3119	0	32839	32121	32309	29459	30727	
3120	0	32795	32437	32390	34352	30995	
3121	0	32818	33031	32541	35832	33383	
3122	0	32775	33383	32651	35503	33041	
3123	0	32873	33829	32671	36315	32293	
3124	0	32762	34648	32679	36551	31218	
3125	0	32853	34406	32817	32990	30350	
3126	0	32704	32199	32775	25005	31337	
3127	0	32504	29951	32926	23992	32839	
3128	0	32554	29258	32837	34684	33625	
3129	0	32588	29804	32856	45303	33372	
3130	0	32747	31414	32775	49625	33433	
3131	0	33024	34105	32622	46358	33017	
3132	0	32801	37205	32720	37378	32528	
3133	0	33092	39046	32929	29410	30941	
3134	0	32930	40185	32923	21937	30904	
3135	0	32612	40038	32758	22573	32713	
3136	0	32768	36870	32736	25435	33647	
3137	0	32967	33706	32845	30822	33953	
3138	0	33256	32765	32720	33735	33863	
3139	0	33178	31711	32726	39734	33343	
3140	0	33082	29717	32583	32788	33296	
3141	0	32914	27633	32649	25786	33159	
3142	0	32988	25635	32816	25040	33716	
3143	0	33136	24547	32738	23482	33542	
3144	0	33124	24670	32743	24685	33518	
3145	0	32839	25859	32637	32277	33201	
3146	0	32756	28578	32608	40141	32839	
3147	0	32711	31619	32658	42111	32561	
3148	0	32729	32923	32722	37977	32614	
3149	0	32815	30863	32790	34994	32751	
3150	0	32699	27440	32656	32910	32980	
3151	0	32424	25534	32675	32019	32967	
3152	0	32580	27667	32717	33886	33135	
3153	0	32728	30833	33010	35485	33479	
3154	0	32741	33231	32903	31090	33159	
3155	0	32768	35385	32959	27736	33019	
3156	0	32728	38566	32938	29814	32715	
3157	0	32616	41979	32885	35509	32656	
3158	0	32525	46079	33021	40856	33523	
3159	0	32375	47593	32965	37447	33412	
3160	0	32678	44805	32803	32009	32059	
3161	0	32775	37081	32729	31393	31879	
3162	0	33124	27554	32739	35040	32056	
3163	0	33208	20673	32710	36858	32070	
3164	0	32857	18196	32716	32349	32775	
3165	0	32931	18554	32671	29850	32515	
3166	0	33051	21919	32630	28407	31939	
3167	0	32849	27636	32691	27409	32578	
3168	0	32592	31929	32741	27328	33464	
3169	0	32448	34275	32774	20865	33635	
3170	0	32304	36798	32755	25220	32459	
