# OpenSignals Text File Format
# {"00:07:80:3B:46:63": {"sensor": ["EMG", "EMG", "EMG", "EMG", "EMG"], "device name": "00:07:80:3B:46:63", "column": ["nSeq", "DI", "CH1", "CH2", "CH3", "CH4", "CH5"], "sync interval": 2, "time": "10:52:24.548", "comments": "", "device connection": "BTH00:07:80:3B:46:63", "channels": [1, 2, 3, 4, 5], "date": "2017-4-28", "mode": 0, "digital IO": [0, 1], "firmware version": 770, "device": "biosignalsplux", "position": 0, "sampling rate": 1000, "label": ["CH1", "CH2", "CH3", "CH4", "CH5"], "resolution": [16, 16, 16, 16, 16], "special": [{}, {}, {}, {}, {}]}}
# EndOfHeader
0	0	32805	33450	32771	34406	33095	
1	0	32737	33171	32702	35351	33173	
2	0	32688	32967	32661	36280	33203	
3	0	32873	33060	32671	36881	33031	
4	0	32793	34401	32821	34151	33152	
5	0	32501	36097	32824	29255	33187	
6	0	32248	37097	32711	30167	32953	
7	0	32390	36959	32758	30099	33013	
8	0	32596	34211	32672	32775	32744	
9	0	32639	29280	32690	36107	32647	
10	0	32879	26941	32775	36907	32498	
11	0	33154	27267	32839	33858	32579	
12	0	33299	30549	32775	31649	32868	
13	0	33157	33879	32699	29943	33147	
14	0	32928	36018	32727	31867	33004	
15	0	32902	36027	32759	34155	32526	
16	0	32584	33447	32745	34695	32551	
17	0	32609	30553	32643	33963	32415	
18	0	32815	28603	32615	33674	32339	
19	0	32976	28261	32703	32289	32827	
20	0	33024	29481	32839	32289	33305	
21	0	32947	32118	32749	33567	33410	
22	0	32796	35567	32775	32165	33170	
23	0	32720	37523	32811	30003	33059	
24	0	32603	37023	32792	29431	32951	
25	0	32565	35769	32729	30558	32827	
26	0	32569	35515	32651	32499	32839	
27	0	32391	34298	32610	34087	32749	
28	0	32520	33522	32615	35777	32879	
29	0	32552	31751	32672	35754	32875	
30	0	32688	31666	32767	35243	32914	
31	0	32787	33779	32775	34540	33016	
32	0	32661	35335	32857	34419	32973	
33	0	32677	35419	32855	32819	32945	
34	0	32674	33883	32823	33811	32868	
35	0	32770	31145	32705	34336	32827	
36	0	32929	29303	32706	30928	32831	
37	0	33146	29910	32717	27519	32954	
38	0	33053	31290	32707	26182	33003	
39	0	32918	30919	32731	28983	33013	
40	0	33032	30505	32755	33011	33055	
41	0	33016	29424	32608	35095	32957	
42	0	32931	28869	32607	35066	32949	
43	0	32765	30906	32617	36272	32659	
44	0	32681	34083	32691	36343	32461	
45	0	32688	36475	32753	34744	32333	
46	0	32640	38074	32877	31857	31783	
47	0	32672	37666	32925	29621	31723	
48	0	32800	35625	32914	30631	32996	
49	0	32930	31269	32922	31119	33437	
50	0	32969	28112	32794	29730	33446	
51	0	32957	27021	32630	30627	33489	
52	0	32677	29586	32617	31815	33219	
53	0	32688	34752	32563	33761	32263	
54	0	32728	37953	32446	35032	31416	
55	0	32708	38401	32489	34872	31617	
56	0	32313	37255	32671	35045	32493	
57	0	32449	34194	32701	31657	32759	
58	0	32568	31323	32762	28269	32055	
59	0	32868	27977	32775	26838	32635	
60	0	33136	26932	32793	28615	33142	
61	0	33076	27600	32863	31957	33423	
62	0	32825	29255	32759	33485	33205	
63	0	32825	31437	32677	34388	32804	
64	0	32905	33574	32758	37479	32678	
65	0	32903	35590	32698	38169	32923	
66	0	32630	36083	32656	37263	33031	
67	0	32508	34109	32634	37919	33367	
68	0	32820	32649	32638	36003	33719	
69	0	33026	33059	32643	33204	33863	
70	0	32993	34731	32680	33174	33907	
71	0	32961	35203	32727	31674	33811	
72	0	33025	33546	32787	31006	32343	
73	0	32912	31964	32865	31465	30791	
74	0	32930	29389	32711	31693	31691	
75	0	33010	27991	32728	31722	32334	
76	0	32721	28991	32805	31035	32415	
77	0	32701	30931	32579	30296	32581	
78	0	32498	32605	32606	30982	33039	
79	0	32391	33319	32831	32309	33385	
80	0	32428	32898	32751	31809	33119	
81	0	32586	33855	32775	32519	32992	
82	0	32530	35485	32694	35015	33330	
83	0	32809	35647	32662	37149	33385	
84	0	32875	35265	32771	38130	33095	
85	0	32995	35207	32743	36634	32918	
86	0	32791	34635	32708	35365	32671	
87	0	32696	32222	32769	33287	32201	
88	0	32570	31239	32838	29456	32274	
89	0	32642	31138	32605	27853	32230	
90	0	32865	31698	32627	28767	32727	
91	0	32932	34051	32715	28295	32961	
92	0	32820	33922	32739	28155	32827	
93	0	32626	32335	32724	30326	32944	
94	0	32844	31406	32816	34356	32933	
95	0	33078	32135	32791	35743	32727	
96	0	33008	34331	32595	36448	32717	
97	0	32912	36722	32728	36463	32851	
98	0	32669	35317	32711	35441	32953	
99	0	32694	34283	32711	34171	33201	
100	0	32884	32246	32729	31580	33376	
101	0	33026	28954	32761	29110	33415	
102	0	32957	25426	32587	28490	33287	
103	0	32712	24687	32582	28803	33057	
104	0	32556	27317	32736	29558	32571	
105	0	32382	32033	32789	31597	31992	
106	0	32356	34570	32752	34475	31981	
107	0	32621	34959	32855	33157	32277	
108	0	32648	36410	32745	32288	32636	
109	0	32704	37767	32775	30227	32807	
110	0	32805	36819	32679	31532	33093	
111	0	32610	35090	32635	36242	33085	
112	0	32704	32038	32676	41421	33162	
113	0	33116	29048	32797	40633	32866	
114	0	33331	25876	32698	38939	32365	
115	0	33075	25382	32799	37029	32615	
116	0	32996	28996	32662	33264	32775	
117	0	32795	32141	32615	31419	32367	
118	0	32331	33818	32795	29877	32662	
119	0	32523	33267	32821	30159	32975	
120	0	32792	33997	32768	29342	33236	
121	0	32844	35939	32737	30042	33031	
122	0	32896	37213	32738	31235	32869	
123	0	32751	36096	32775	31846	32996	
124	0	32701	34887	32699	33003	32914	
125	0	32790	32912	32726	31938	32908	
126	0	32928	30423	32767	31751	32613	
127	0	32994	29875	32539	30917	32399	
128	0	32923	30427	32673	29328	32787	
129	0	32652	31690	32807	30023	33131	
130	0	32713	34195	32667	31386	33258	
131	0	32833	34207	32729	33433	33216	
132	0	32749	33474	32837	36348	33121	
133	0	32536	33127	32839	37809	33170	
134	0	32513	32642	32871	36713	32999	
135	0	32637	32912	32895	35545	33211	
136	0	32589	33523	32857	34865	32903	
137	0	32568	33159	32787	31751	32459	
138	0	32699	33392	32609	31111	32461	
139	0	33005	32801	32623	31383	32615	
140	0	33042	32613	32675	31353	32427	
141	0	32869	33053	32769	31602	32775	
142	0	32805	33123	32749	31731	32731	
143	0	32516	33511	32775	30784	33017	
144	0	32229	34079	32676	28911	33197	
145	0	32370	34042	32770	27005	33222	
146	0	32500	35462	32759	28319	33193	
147	0	32690	36665	32715	29291	33095	
148	0	32737	36000	32688	34616	33159	
149	0	32637	35475	32775	38481	33199	
150	0	32696	34687	32835	39075	33261	
151	0	32861	32152	32835	39088	33057	
152	0	33159	28758	32664	38052	32323	
153	0	33116	29747	32774	37015	31793	
154	0	33055	32503	32770	35975	31855	
155	0	32954	33130	32703	32787	32379	
156	0	32908	31660	32825	30648	33250	
157	0	32980	28738	32601	28901	33676	
158	0	33254	26454	32683	27367	33567	
159	0	33287	24831	32807	29350	33154	
160	0	33085	24447	32699	31778	32634	
161	0	32809	28748	32837	32899	32259	
162	0	32677	33366	32705	33384	31969	
163	0	32612	36103	32672	33147	32071	
164	0	32652	36390	32709	32707	32367	
165	0	32548	36015	32775	32775	32902	
166	0	32809	35971	32743	35793	33026	
167	0	32666	35283	32694	36901	32930	
168	0	32483	34163	32775	34801	32883	
169	0	32505	33947	32653	32909	32932	
170	0	32521	34463	32573	31117	33179	
171	0	32742	33920	32623	29533	33140	
172	0	32821	33199	32627	28860	33155	
173	0	32618	33239	32695	31847	32925	
174	0	32594	33117	32791	31359	32889	
175	0	32774	31283	32802	30790	32943	
176	0	33011	30587	32655	33355	32989	
177	0	32787	30530	32711	35695	33012	
178	0	32647	31497	32726	32485	32953	
179	0	32713	32599	32755	31798	32796	
180	0	32972	33435	32812	31317	32658	
181	0	32733	35599	32717	30129	32512	
182	0	32605	34131	32691	32391	32003	
183	0	32914	29910	32579	35624	32342	
184	0	33070	27186	32578	35877	32799	
185	0	32837	29121	32609	34200	32996	
186	0	32762	31365	32761	32310	33003	
187	0	32834	32186	32822	29426	33106	
188	0	32967	33939	32675	27809	33217	
189	0	32936	37782	32775	26135	32879	
190	0	32710	38343	32743	29490	32727	
191	0	32813	35927	32849	36729	32903	
192	0	32850	32506	32617	40455	32853	
193	0	32775	28631	32564	39235	32699	
194	0	32855	26012	32647	37805	32678	
195	0	32723	27794	32721	35922	32803	
196	0	32772	30453	32751	33410	32775	
197	0	32711	32797	32752	30539	32741	
198	0	32587	35909	32763	30851	32817	
199	0	32471	36227	32773	32665	32997	
200	0	32396	34883	32669	35561	33067	
201	0	32852	35025	32663	38157	32954	
202	0	33133	37441	32770	37190	32746	
203	0	33196	37755	32717	33274	32603	
204	0	33148	36827	32698	31771	32475	
205	0	32774	33323	32801	31445	32681	
206	0	32568	29977	32849	30267	32873	
207	0	32466	27897	32822	28244	32984	
208	0	32805	26989	32725	27229	32894	
209	0	32957	29979	32709	28358	32889	
210	0	33004	34331	32705	29868	32865	
211	0	32830	36116	32813	31511	32839	
212	0	32976	32823	32839	35417	32869	
213	0	32967	31445	32879	35449	32871	
214	0	32476	30229	32906	33490	32999	
215	0	32494	29992	32805	30515	32824	
216	0	32740	33946	32835	26541	32590	
217	0	32884	35549	32807	27771	32613	
218	0	32744	33201	32745	30893	33112	
219	0	32793	34413	32846	34149	33017	
220	0	32688	37813	32749	36286	32632	
221	0	32390	38407	32616	35190	32563	
222	0	32603	35161	32353	38530	32446	
223	0	32740	30959	32335	37271	32755	
224	0	32818	27411	32416	33866	33003	
225	0	32858	25330	32627	33280	33090	
226	0	32850	24699	32692	32676	33095	
227	0	32739	25799	32732	30919	32965	
228	0	32749	28978	32725	31456	32849	
229	0	32827	32691	32833	33193	32626	
230	0	32965	35478	32987	34512	32667	
231	0	32898	36285	33314	35671	32852	
232	0	32724	34259	33502	34021	33012	
233	0	32646	32242	33634	30303	33120	
234	0	32880	32562	33760	24936	32914	
235	0	32836	33841	33922	22715	32813	
236	0	32686	35741	33767	26672	32772	
237	0	32677	37133	32931	31973	32913	
238	0	32904	35472	32150	38324	32880	
239	0	33037	33021	31613	42914	32664	
240	0	33077	31919	31268	44794	32512	
241	0	32738	30209	30707	44321	32661	
242	0	32532	28333	30448	38010	32995	
243	0	32405	29746	31108	32199	32804	
244	0	32508	31666	31889	27815	32507	
245	0	32659	33357	32331	25575	32680	
246	0	32638	35459	32257	27403	32911	
247	0	32678	35867	32146	29387	33247	
248	0	32696	36766	32592	30051	33491	
249	0	32665	37126	33027	31606	33663	
250	0	32616	36303	33351	32993	33729	
251	0	32955	34610	33521	33039	33631	
252	0	33380	32297	33549	33143	33142	
253	0	33614	29072	33498	31113	32503	
254	0	33330	30566	33079	31775	32111	
255	0	33072	31802	32701	32482	31634	
256	0	32898	32287	32486	34904	31191	
257	0	32804	31486	32967	37346	31815	
258	0	32263	32359	33387	36888	32337	
259	0	32158	34153	33469	35333	32959	
260	0	32273	33836	33297	32610	33182	
261	0	32240	29584	32731	34034	33189	
262	0	32406	24697	32451	36369	33412	
263	0	32856	22302	32843	35226	33453	
264	0	33249	24747	32813	31487	33474	
265	0	33380	28847	32883	26608	33199	
266	0	33194	31651	32961	25961	33430	
267	0	33193	36664	32986	28921	33418	
268	0	32910	41301	33035	30326	33129	
269	0	32549	42973	32998	30095	32883	
270	0	32351	39661	32912	32109	32227	
271	0	32356	35309	32859	35227	31832	
272	0	32501	33511	32775	35559	31839	
273	0	32405	33450	32800	32551	32555	
274	0	32655	32768	32751	32680	31923	
275	0	32689	31887	32831	35427	31988	
276	0	32836	29507	32771	37357	32677	
277	0	33060	29149	32751	36487	33186	
278	0	33340	30302	32641	33793	33287	
279	0	33275	32894	32539	31638	33379	
280	0	32960	36163	32619	31059	33543	
281	0	32836	38274	32747	30283	33332	
282	0	32518	39928	32818	27973	33033	
283	0	32329	38167	32765	26368	32717	
284	0	32540	32767	32797	25777	32689	
285	0	32411	29087	32857	28115	32920	
286	0	32450	30358	32591	32717	33032	
287	0	32848	33006	32603	37944	33198	
288	0	32756	34461	32717	39933	33278	
289	0	33136	33247	32746	40821	33169	
290	0	33314	29581	32742	39378	32711	
291	0	33164	23036	32731	33556	32754	
292	0	33045	20371	32795	28552	32754	
293	0	32962	24996	32924	28325	32928	
294	0	32716	30203	32839	32157	33010	
295	0	32714	32639	32643	33058	33051	
296	0	32616	35239	32613	32117	33095	
297	0	32697	37379	32635	31787	33135	
298	0	33141	35945	32647	32823	32723	
299	0	33073	35194	32615	34107	32512	
300	0	32902	36541	32667	34638	32722	
301	0	32589	38279	32745	34345	32791	
302	0	32553	39007	32839	35599	32455	
303	0	32578	39385	32746	33088	32581	
304	0	32134	37785	32687	30835	32807	
305	0	32117	34696	32666	26420	32755	
306	0	32146	31418	32663	21460	32665	
307	0	32171	28717	32691	21348	32652	
308	0	32168	23507	32713	29657	32744	
309	0	32248	21362	32656	39354	32902	
310	0	32484	24496	32564	47481	32642	
311	0	33158	28535	32599	48515	32683	
312	0	33725	32834	32610	41552	32910	
313	0	34044	38093	32715	34675	32957	
314	0	33981	39975	32722	30951	32870	
315	0	33472	38321	32678	29051	32848	
316	0	33120	32999	32745	29776	33060	
317	0	33102	27667	32839	31092	32935	
318	0	32848	28334	32671	31541	32824	
319	0	32547	30457	32789	32720	33018	
320	0	32544	34823	32775	35196	33159	
321	0	32341	38181	32812	35975	33085	
322	0	31853	38406	32825	34685	32263	
323	0	31828	38615	32850	30027	31751	
324	0	32490	36901	32799	25761	32252	
325	0	33284	32242	32795	26095	32572	
326	0	33758	28630	32813	27269	32703	
327	0	33338	29963	32774	29067	32857	
328	0	32723	33607	32820	35018	33013	
329	0	32064	35709	32774	37413	32879	
330	0	32066	34293	32789	35210	32918	
331	0	32676	30994	32855	31239	32952	
332	0	32866	27975	32817	28167	33048	
333	0	33099	26738	32817	25372	33207	
334	0	33064	28781	32707	30559	33211	
335	0	32654	29966	32667	33571	32896	
336	0	32720	29890	32640	35834	32495	
337	0	32877	30818	32551	36765	32519	
338	0	32960	32896	32623	38129	32579	
339	0	32903	32933	32636	39431	32225	
340	0	32620	33967	32621	39201	31909	
341	0	32744	34015	32617	37605	32239	
342	0	32817	34283	32638	35091	32863	
343	0	32698	34983	32659	33577	33358	
344	0	32297	36607	32764	33269	33287	
345	0	32446	38505	32801	31199	33122	
346	0	32795	36900	32755	29119	33421	
347	0	32996	33122	32710	30244	33415	
348	0	33058	30437	32839	28825	32879	
349	0	33060	28728	32811	29296	32247	
350	0	33262	27263	32820	31438	31890	
351	0	33153	26480	32910	32887	32263	
352	0	32650	27681	33051	33581	32571	
353	0	32466	30437	33100	32730	32160	
354	0	32067	32953	33121	31648	32711	
355	0	31837	34311	33058	31391	33194	
356	0	31650	36926	33080	31748	33208	
357	0	31908	38855	32967	31923	33117	
358	0	32379	39824	32723	30966	33238	
359	0	32426	39936	32290	30411	33287	
360	0	32396	38469	32065	29026	33261	
361	0	32572	34028	31826	29424	33241	
362	0	33178	26098	31680	30823	32848	
363	0	33942	19936	32393	35956	32169	
364	0	34213	20643	32808	39111	31899	
365	0	34265	25879	32882	38006	32196	
366	0	34044	27391	32775	31656	32896	
367	0	33752	31680	32647	25582	33176	
368	0	33370	35002	32719	25115	33012	
369	0	32996	36588	32825	33090	33178	
370	0	32332	37351	32969	42368	32874	
371	0	31750	38082	33076	46617	32742	
372	0	31506	38085	33001	44403	33269	
373	0	31704	37846	32949	37032	33115	
374	0	32162	36337	32831	29371	33049	
375	0	33034	34861	32579	25805	32870	
376	0	33620	35620	32749	26328	32603	
377	0	33742	38123	33108	28189	32392	
378	0	33490	37133	33223	29025	32151	
379	0	33328	34381	33305	26715	32385	
380	0	33186	31379	33381	27491	32987	
381	0	32775	31853	33210	29458	33159	
382	0	32396	31467	32263	32602	32863	
383	0	32530	29411	31405	34213	32141	
384	0	32808	27561	32160	33679	32550	
385	0	32946	27312	32354	35032	32999	
386	0	32969	26826	31991	38571	33264	
387	0	32927	27420	31899	38565	32511	
388	0	32780	31579	32356	36280	32066	
389	0	32584	35630	32227	35597	32758	
390	0	32509	35067	32461	38051	33048	
391	0	32649	33926	32775	35134	33182	
392	0	32327	34754	33018	30467	33234	
393	0	31650	37895	33237	26823	33059	
394	0	31538	38639	33323	27573	33153	
395	0	31834	37911	33255	27169	32709	
396	0	31843	37081	33120	32447	33088	
397	0	32188	34471	33093	35942	33189	
398	0	32732	29291	32944	38087	33144	
399	0	33268	25509	32975	39559	33033	
400	0	33113	24352	32961	36152	32655	
401	0	32684	26695	32954	32821	32531	
402	0	32716	29172	33047	31553	32497	
403	0	32581	30373	33032	28128	32363	
404	0	32864	32381	32711	24489	31909	
405	0	32932	34978	32279	27086	31751	
406	0	33126	36904	32560	29711	31877	
407	0	33004	35877	32727	29969	32346	
408	0	32587	32451	32765	35776	33034	
409	0	32382	27517	32850	39411	33255	
410	0	33101	23993	32775	42456	33136	
411	0	33612	24967	32773	44439	33075	
412	0	34023	28758	32871	41307	33143	
413	0	34029	33388	32869	36821	32992	
414	0	34242	36832	32885	27892	32967	
415	0	34010	39249	32960	17648	32700	
416	0	33000	39581	32809	15420	32171	
417	0	32754	37347	32682	20214	32980	
418	0	32567	33657	32899	28834	33604	
419	0	32304	32339	33068	34379	33440	
420	0	32277	30987	32959	38618	32551	
421	0	32536	29947	32245	37721	32246	
422	0	33356	29490	32263	38082	32801	
423	0	32438	30151	32721	35507	32952	
424	0	32014	29675	33015	36398	32698	
425	0	32250	30119	32937	37971	33033	
426	0	32545	30591	32719	37931	33137	
427	0	32768	31287	32641	37351	33154	
428	0	32775	32166	32354	38751	33129	
429	0	33000	32125	31923	40615	33381	
430	0	32828	32573	31874	37458	33408	
431	0	33035	35348	32186	33206	33419	
432	0	33138	37858	32249	28488	33064	
433	0	33058	38663	32967	25250	30984	
434	0	33296	39558	33486	26173	31642	
435	0	33216	39123	33703	26351	32527	
436	0	32672	38572	33810	24195	32658	
437	0	32012	39510	33728	23188	32727	
438	0	31437	41739	33363	24601	33021	
439	0	31702	41523	33405	30315	34031	
440	0	32002	39017	33511	35139	34503	
441	0	32306	35205	33077	34110	34622	
442	0	32716	28843	32056	32996	34435	
443	0	33117	22416	31312	35802	31744	
444	0	33165	20383	31588	34797	30213	
445	0	32865	20592	31832	27408	31536	
446	0	33190	23892	31815	23706	31809	
447	0	33068	28888	31934	26287	32391	
448	0	32869	32646	31856	31568	33404	
449	0	32624	33750	31250	34875	33848	
450	0	32440	34647	31436	42394	34371	
451	0	32545	35335	32664	47152	32316	
452	0	32560	37400	33263	48340	29788	
453	0	32420	37936	33308	46434	30899	
454	0	32515	36818	32765	42400	33463	
455	0	32532	33124	32534	37585	34163	
456	0	33262	27374	32915	33046	34468	
457	0	34156	25478	33415	27740	33702	
458	0	33643	25225	33391	23081	33399	
459	0	32839	28423	33479	21301	33095	
460	0	32160	32038	33439	24739	32647	
461	0	32280	32767	33357	25383	32351	
462	0	32374	33047	33132	27203	31895	
463	0	32025	32069	32875	31580	31713	
464	0	32203	33980	32564	35010	32696	
465	0	32656	38400	32877	39441	32773	
466	0	33328	41314	33176	40732	32751	
467	0	33280	42703	33230	38953	33309	
468	0	33347	38196	33140	30987	32281	
469	0	33420	31538	33172	25857	32019	
470	0	33272	27100	32976	21290	33317	
471	0	33000	24790	32720	21175	33539	
472	0	32734	23781	32807	24464	33469	
473	0	32716	23838	32872	35624	33298	
474	0	33027	26268	32813	46472	32952	
475	0	32732	30963	32832	50902	33267	
476	0	32470	35903	32788	48822	32645	
477	0	31821	37634	32815	40928	33065	
478	0	31872	38738	32730	32628	33040	
479	0	32480	36594	32617	27720	32979	
480	0	33429	33122	32547	27127	32701	
481	0	33823	30467	32384	30240	32455	
482	0	33690	29558	32448	31953	32319	
483	0	33306	31312	32531	31149	32371	
484	0	32910	31110	32583	28946	32606	
485	0	32665	33851	32613	26834	32932	
486	0	33060	38308	32773	25919	33079	
487	0	33148	39268	32905	30473	33136	
488	0	33123	39505	33026	37583	32962	
489	0	32631	36589	33012	37866	32857	
490	0	32457	31427	32864	30326	32761	
491	0	32242	27532	32662	18525	32757	
492	0	32091	28200	32664	17055	32973	
493	0	31921	32967	32740	24309	32903	
494	0	31608	36642	32696	35128	32920	
495	0	31732	37263	32683	45060	32639	
496	0	32297	35335	32731	51880	32491	
497	0	32626	29832	32646	47568	32745	
498	0	33378	22507	32690	36672	32730	
499	0	34096	23418	32747	31190	32630	
500	0	34073	28335	32511	30297	32827	
501	0	33373	32175	32180	34071	32873	
502	0	33010	35379	32281	36403	32553	
503	0	32984	38137	32670	32836	32513	
504	0	32482	37771	32755	28247	32583	
505	0	32420	37751	32663	26732	32705	
506	0	32300	39425	32754	27341	33147	
507	0	32352	39030	32729	29075	33767	
508	0	32302	34875	32696	30339	33901	
509	0	32244	28985	32774	34422	33730	
510	0	32614	25226	32493	34702	33536	
511	0	32992	26141	32768	31807	33104	
512	0	33325	30752	32853	31370	32179	
513	0	33030	36838	32743	33740	31535	
514	0	33005	37819	32770	37562	31955	
515	0	33501	35897	32851	36595	32775	
516	0	33336	30617	32762	33304	32735	
517	0	33042	25863	32605	32301	32734	
518	0	32987	24121	32707	32755	33082	
519	0	32931	25022	32902	33026	33237	
520	0	32857	27888	32941	31200	33067	
521	0	32816	30547	32963	30497	32899	
522	0	32443	32676	33018	28785	32702	
523	0	32144	34491	32620	19792	32624	
524	0	31835	36537	32409	17167	32729	
525	0	31790	37973	32503	21083	32749	
526	0	31997	39104	32543	29358	32832	
527	0	32276	37424	32472	40898	32889	
528	0	32540	34794	32532	52289	32980	
529	0	32960	33782	32573	52871	32973	
530	0	33298	33159	32795	45103	32871	
531	0	33208	32519	32692	35923	33349	
532	0	32819	32791	32619	33875	33511	
533	0	33002	35443	32710	35688	33437	
534	0	32937	36567	32615	35239	32769	
535	0	33014	33933	32774	33911	32295	
536	0	32764	29547	32920	32045	32438	
537	0	33371	24515	32839	29410	32240	
538	0	33594	23699	32809	27608	30759	
539	0	33515	25247	32674	28637	30802	
540	0	33152	29578	32656	29056	32937	
541	0	32910	33316	32614	29341	34038	
542	0	32872	37877	33002	28018	33642	
543	0	32612	40060	33033	25488	33136	
544	0	32035	42226	33031	26589	32289	
545	0	31556	42159	33046	30432	32466	
546	0	31779	40448	32977	35107	32677	
547	0	32212	38067	32916	37730	32692	
548	0	32040	33716	32696	35926	32928	
549	0	32066	28688	32775	32313	32929	
550	0	32485	25580	32905	28194	33144	
551	0	33057	23349	32704	27619	33097	
552	0	33648	22361	32710	30428	33384	
553	0	33958	25179	32835	33671	33429	
554	0	33714	28065	32591	35142	33446	
555	0	33373	32221	32690	39412	33250	
556	0	32732	35369	32742	45788	32997	
557	0	32521	36163	32733	42055	32939	
558	0	32610	34981	32677	32199	33029	
559	0	32661	31397	32573	25933	33159	
560	0	32730	29115	32706	27367	33439	
561	0	32518	29307	32865	29319	33347	
562	0	32475	32464	32736	32512	32911	
563	0	32676	34918	32744	36152	32813	
564	0	32994	34477	32751	38935	32131	
565	0	32833	33246	32793	39583	31833	
566	0	32624	33263	32572	35070	31918	
567	0	32685	33791	32531	31031	32903	
568	0	32882	36333	32679	31136	33053	
569	0	32744	39393	32760	30448	32788	
570	0	32560	41072	32824	29827	32803	
571	0	32000	38649	32704	27457	33060	
572	0	31985	34402	32617	25701	32947	
573	0	32696	30794	32685	28562	32492	
574	0	33561	27702	32835	29717	32524	
575	0	34074	26000	32775	32972	32509	
576	0	34304	25356	32478	36615	32179	
577	0	33880	28674	32556	39229	32249	
578	0	33404	31827	32818	40233	32513	
579	0	32977	35225	32819	36526	32984	
580	0	32395	35399	32775	30650	33287	
581	0	32009	33061	32765	30889	33124	
582	0	32022	30661	32633	30887	33071	
583	0	31812	31714	32601	31451	33095	
584	0	31751	31491	32583	30951	32319	
585	0	31789	31586	32775	30495	32337	
586	0	32244	31665	32825	29549	32869	
587	0	32870	33861	32832	30481	32863	
588	0	33192	37761	32789	26955	32855	
589	0	33394	41571	32876	25621	32801	
590	0	33160	42070	32868	29382	32865	
591	0	33129	38040	32887	34704	32733	
592	0	32712	32743	32754	38676	32740	
593	0	32636	27857	32689	42779	32995	
594	0	32728	24053	32401	40155	32937	
595	0	32768	23699	32528	34503	33261	
596	0	32963	24635	32755	30959	33131	
597	0	33194	26841	32606	31087	32849	
598	0	33251	29306	32557	35979	33118	
599	0	33486	31211	32653	39632	32824	
600	0	33060	34789	32626	39284	32295	
601	0	32584	36928	32664	36387	32121	
602	0	32216	38239	32727	29320	32043	
603	0	32000	36342	32726	20841	32424	
604	0	32583	33216	32857	19321	32739	
605	0	32816	32159	32791	24363	32970	
606	0	32762	34066	32681	30435	32848	
607	0	32752	36295	32740	35369	32637	
608	0	32898	36539	32661	39615	32532	
609	0	32982	33645	32597	39147	32565	
610	0	32797	31405	32758	36397	33033	
611	0	32548	30063	32640	36221	33316	
612	0	32181	29827	32789	35419	33436	
613	0	32171	31080	32733	32637	33146	
614	0	32752	32482	32729	28643	32863	
615	0	32848	34306	32859	28148	33005	
616	0	32837	36743	32927	31764	32928	
617	0	33056	36518	32821	32647	32487	
618	0	32952	34274	32720	28322	32857	
619	0	32248	31023	32687	25382	32943	
620	0	32512	28782	32717	31191	33040	
621	0	33085	27130	32754	37011	32711	
622	0	33472	29848	32733	41837	32368	
623	0	33476	35445	32671	45476	32428	
624	0	33296	38375	32656	49490	32527	
625	0	33204	39298	32674	47111	32737	
626	0	33272	35722	32490	40253	33074	
627	0	33041	31252	32459	28818	33114	
628	0	32802	27240	32555	24674	32594	
629	0	32399	25439	32535	24391	33021	
630	0	32261	25965	32527	23105	33431	
631	0	32506	28415	32512	22928	33059	
632	0	32569	31709	32514	27687	32873	
633	0	32609	35041	32595	32295	32903	
634	0	33218	37264	32652	29584	32947	
635	0	33156	40674	32742	24421	32691	
636	0	33028	43203	32792	24244	32569	
637	0	32732	39864	32734	28158	32472	
638	0	32544	31444	32484	33671	32315	
639	0	32852	24024	32512	32229	32368	
640	0	33352	20729	32557	29662	32871	
641	0	33686	25998	32632	33458	32635	
642	0	33572	30651	32698	34694	32954	
643	0	33353	33412	32657	40402	33097	
644	0	33320	35220	32516	46828	32890	
645	0	33252	36373	32541	49715	32800	
646	0	32816	34622	32553	44496	33042	
647	0	32494	32693	32578	32676	32955	
648	0	32169	35067	32600	21426	32263	
649	0	31833	36159	32670	17954	32199	
650	0	31549	39834	32738	24109	32630	
651	0	31572	40641	32744	31616	33012	
652	0	31777	36237	32775	34438	32861	
653	0	32611	30798	32697	33910	33049	
654	0	33438	27655	32803	34816	33183	
655	0	33353	26217	32702	36310	33158	
656	0	32884	26298	32809	36533	31959	
657	0	32169	23519	32924	35108	32514	
658	0	32096	21917	32839	35810	32752	
659	0	31845	25527	32820	40179	33313	
660	0	31845	29875	32723	37235	33729	
661	0	31759	34543	32640	33316	33686	
662	0	31950	38355	32722	33206	33643	
663	0	32440	38263	32786	31199	33607	
664	0	33082	37440	32836	26899	33671	
665	0	33920	38347	32775	23069	33508	
666	0	34132	40014	32812	19072	32676	
667	0	33706	41254	32959	19904	32615	
668	0	33130	39405	33025	26427	31776	
669	0	32676	38085	33048	34587	31136	
670	0	32448	38335	33193	38125	32037	
671	0	32080	36066	32898	43686	31853	
672	0	32236	30641	32241	48111	30702	
673	0	32560	23645	32358	41317	31635	
674	0	33033	18586	32800	27632	33121	
675	0	33381	17994	33031	26174	33743	
676	0	33357	22327	33229	29675	34039	
677	0	33240	28299	33247	31342	33890	
678	0	33622	34370	32984	26856	33293	
679	0	33742	39276	33052	24211	32263	
680	0	33842	42188	32580	31172	31824	
681	0	33381	41856	32445	43036	32460	
682	0	32072	37327	32567	46514	33005	
683	0	31490	30413	32835	41573	33326	
684	0	30988	25645	32221	36296	33621	
685	0	30643	22982	31647	36088	33824	
686	0	30847	23515	31710	37497	33389	
687	0	31368	29142	32216	33718	31993	
688	0	32252	36582	31587	28791	31169	
689	0	34008	41396	31765	23316	31474	
690	0	35086	42687	32358	21603	32413	
691	0	34719	41773	32929	24991	32569	
692	0	34104	38892	33210	30738	32848	
693	0	33769	35225	33053	31867	33447	
694	0	33600	31751	32945	29090	34919	
695	0	33611	29746	32928	24856	34955	
696	0	33576	26295	33013	29211	35019	
697	0	33070	25538	33310	36379	35762	
698	0	32753	30378	33248	47138	34139	
699	0	32474	35579	33535	52082	32538	
700	0	31744	34998	33518	47015	28219	
701	0	31940	31088	33342	35617	27481	
702	0	32224	27798	33178	26631	29639	
703	0	32884	26837	32677	22624	31292	
704	0	33388	28249	32525	25782	33225	
705	0	33692	31548	32898	30714	34422	
706	0	33428	34660	32839	35798	34294	
707	0	33045	35415	32599	36809	33415	
708	0	33362	34330	32851	35703	33503	
709	0	33515	31522	33045	33607	33179	
710	0	32985	32339	33076	33246	33211	
711	0	32272	34179	32990	34346	33581	
712	0	31328	34738	32804	33097	33056	
713	0	30960	33104	32775	30295	33759	
714	0	30956	32674	32639	27813	34199	
715	0	31790	32485	31962	23527	34389	
716	0	32300	33693	32112	18389	33879	
717	0	32527	34134	32417	19648	31987	
718	0	32751	34334	32720	24029	29651	
719	0	32946	35689	32768	30790	29094	
720	0	33384	35141	32696	33695	31682	
721	0	33622	33216	32790	35399	33444	
722	0	33516	33536	32794	38072	34575	
723	0	32701	34823	32895	42887	35509	
724	0	32860	33996	32952	46482	36453	
725	0	33273	34499	32954	45963	34283	
726	0	33308	36386	32979	41679	28899	
727	0	33037	35929	32962	35485	29939	
728	0	32249	34688	32977	32123	29187	
729	0	32260	31965	32945	32467	30795	
730	0	32210	27651	32937	28674	32583	
731	0	32213	25931	32685	28032	34031	
732	0	32056	26721	32855	28825	33927	
733	0	32216	28295	32667	31186	33677	
734	0	32134	29798	32882	34543	33833	
735	0	32263	29937	32939	35635	33407	
736	0	32647	30013	33011	34973	33159	
737	0	33199	31194	32895	32598	33057	
738	0	33512	33598	32529	29798	33162	
739	0	33628	36648	32288	25728	33195	
740	0	33491	39329	32315	22923	32559	
741	0	32996	41804	32581	19962	32166	
742	0	32320	42280	32711	19585	32647	
743	0	32446	40935	32775	27443	33472	
744	0	32952	41515	32896	37062	33871	
745	0	33211	40169	32891	42468	33739	
746	0	33264	36201	32696	41027	33640	
747	0	33096	28935	32666	37752	33368	
748	0	33013	21046	32809	33597	33122	
749	0	33218	17342	32941	32354	32877	
750	0	33474	18143	33007	35330	32604	
751	0	33552	22401	33019	39751	32536	
752	0	33592	26712	32921	42341	32440	
753	0	33548	30306	32881	49546	32172	
754	0	33160	32839	32948	50386	32208	
755	0	32888	34000	32987	43312	32009	
756	0	32245	34929	33019	34268	32617	
757	0	31957	34029	32944	27106	33678	
758	0	32130	32179	32583	20612	33624	
759	0	32276	31202	32487	19070	33174	
760	0	32402	31555	32634	22513	32205	
761	0	32804	33763	32891	27532	32154	
762	0	32987	35186	33062	31021	32446	
763	0	32832	36649	33167	33082	32868	
764	0	32640	36399	33159	32367	32961	
765	0	31874	33794	33091	27053	33077	
766	0	31514	30953	33280	22875	33419	
767	0	31549	30989	33252	24998	32633	
768	0	31381	31281	33023	35472	31599	
769	0	31460	31277	32676	40992	33110	
770	0	31920	33284	31872	35755	33353	
771	0	32506	36295	31318	27155	32698	
772	0	33412	38541	31201	24037	31848	
773	0	34170	39695	31448	25191	32421	
774	0	34372	39775	31995	28391	32863	
775	0	34723	39355	32327	31204	32878	
776	0	34038	38774	32741	37877	32775	
777	0	33033	35674	33122	46713	32762	
778	0	32396	31588	32872	50680	33180	
779	0	32775	28131	32511	47615	33039	
780	0	33168	24898	32967	40089	32886	
781	0	33109	21159	33207	35280	32356	
782	0	32941	20025	33243	31260	31997	
783	0	33103	19397	33778	29525	31669	
784	0	32996	22558	33705	28871	32803	
785	0	32306	26566	34023	29274	33355	
786	0	31697	32187	33040	28624	33147	
787	0	31029	38505	32365	28438	33362	
788	0	30761	42921	32761	30853	33097	
789	0	30727	43843	32250	35847	33307	
790	0	31530	40034	32221	40114	33226	
791	0	33190	34670	32278	37242	33765	
792	0	34851	31546	32505	28368	34800	
793	0	35704	30900	32793	24052	34163	
794	0	35534	30819	33208	26221	32796	
795	0	34390	33371	33452	29019	31506	
796	0	32696	35590	33935	29786	30898	
797	0	31369	35899	33799	28643	31427	
798	0	30899	35515	33055	29673	32533	
799	0	31590	35162	32735	33923	32595	
800	0	32186	34799	32824	39892	33165	
801	0	32873	34143	32527	41593	33249	
802	0	34198	31853	32443	39285	33088	
803	0	34885	28593	32291	36166	32825	
804	0	34032	27551	31387	32410	33095	
805	0	32784	28466	30485	29101	33163	
806	0	32199	28219	30595	26971	33470	
807	0	31909	26957	32457	24649	32953	
808	0	32709	27551	34180	22259	32751	
809	0	33543	33620	34367	22912	32912	
810	0	33360	39361	31972	26386	32805	
811	0	33213	43718	31372	33344	32421	
812	0	33584	44636	32775	44288	32855	
813	0	33480	42878	33285	47906	32997	
814	0	32748	38847	33238	43682	32910	
815	0	32039	31126	33266	37166	33629	
816	0	31697	24972	33135	33176	33794	
817	0	31712	23043	33110	28929	33241	
818	0	31680	24963	33120	27033	31529	
819	0	31852	27911	32955	28419	30406	
820	0	31968	30861	32986	31209	31431	
821	0	32080	32688	32949	31925	32569	
822	0	32345	33587	32722	30780	32850	
823	0	32320	34470	32767	25929	33402	
824	0	32704	36260	32916	24351	33554	
825	0	33568	38365	32557	24628	33833	
826	0	34140	38919	32419	27461	33963	
827	0	34048	37590	32860	38155	32898	
828	0	33784	33976	32978	49126	30941	
829	0	32853	32349	33071	52359	31157	
830	0	32284	32474	32976	50183	31471	
831	0	32168	33893	32944	45459	31959	
832	0	32384	34179	33020	39199	32225	
833	0	32230	32691	32988	28340	32604	
834	0	32024	29767	32942	17347	33078	
835	0	31866	28055	32931	16851	33035	
836	0	32017	27484	32900	22431	32989	
837	0	32154	26339	32803	31117	33259	
838	0	32262	25990	32696	37703	33201	
839	0	32677	26647	32803	38101	33257	
840	0	32920	29500	32896	31961	33328	
841	0	32672	33767	32743	28728	33494	
842	0	32787	36439	32666	29142	33021	
843	0	33417	36967	32658	31149	32745	
844	0	34281	36202	32706	34682	33023	
845	0	34623	33799	32719	33931	33010	
846	0	34396	33320	32694	32017	32975	
847	0	33083	33362	32592	34976	33041	
848	0	32424	32071	32582	39262	32832	
849	0	32230	33440	32773	44002	32671	
850	0	32506	35056	32869	44855	32720	
851	0	32699	36856	33007	35791	32521	
852	0	32501	35839	32989	27344	32879	
853	0	32279	34861	32971	23813	32759	
854	0	32421	32943	33206	24751	32681	
855	0	32427	30194	33233	29355	32979	
856	0	32696	27107	33412	32178	32903	
857	0	33292	23232	32953	27243	32910	
858	0	33600	22627	32327	21554	32906	
859	0	33158	25024	32455	22479	32711	
860	0	32923	27590	31309	27133	32587	
861	0	32928	31641	31300	31648	32662	
862	0	32758	35260	31559	38388	32708	
863	0	32726	37070	31947	43872	32476	
864	0	32349	41005	32133	44794	32604	
865	0	32208	44605	32456	36642	32902	
866	0	32504	46898	33043	29349	33597	
867	0	32804	45443	33178	31615	33009	
868	0	32937	42722	33081	37191	32831	
869	0	33223	39182	32813	38495	32631	
870	0	33064	34239	32869	36487	32641	
871	0	32508	26728	33410	32863	32720	
872	0	32097	19087	33321	30661	32844	
873	0	32072	14537	32868	28937	32730	
874	0	32139	13780	32788	27070	32449	
875	0	32213	17863	33149	27157	32805	
876	0	32632	25305	33430	29995	32832	
877	0	32876	32528	32839	33671	33236	
878	0	32846	37337	31773	34535	33226	
879	0	33301	40263	31714	33526	33228	
880	0	33421	43620	32128	33345	32717	
881	0	33376	44961	32441	34194	31647	
882	0	33150	45790	32935	34279	32134	
883	0	32989	46535	33353	32592	33399	
884	0	32880	43827	33339	33699	33507	
885	0	32502	37776	33023	33973	33221	
886	0	32460	31896	32517	35686	32361	
887	0	32469	25607	31928	36100	32472	
888	0	32718	20112	32300	30292	32381	
889	0	33053	19256	32603	22352	32192	
890	0	33420	21529	32727	18829	33062	
891	0	33144	26674	33058	22781	33038	
892	0	32054	30994	33392	27477	33060	
893	0	31303	34691	33287	35219	33095	
894	0	31234	38855	33147	39504	32913	
895	0	31490	42738	33094	42682	32886	
896	0	32238	43606	33147	46015	32968	
897	0	32937	39784	33167	49024	32213	
898	0	33459	33123	33056	49058	32232	
899	0	33570	25366	33256	39830	32399	
900	0	32775	23430	33387	30949	32504	
901	0	33016	24916	33150	25131	32922	
902	0	34034	26834	32117	23526	32978	
903	0	34096	28454	31641	21683	32820	
904	0	33740	29459	32435	21759	33074	
905	0	32591	32967	32857	23294	32563	
906	0	32269	36166	32602	28093	32370	
907	0	32281	38092	32286	35444	32658	
908	0	32873	38208	31991	40894	32738	
909	0	33181	36533	32237	42547	32701	
910	0	34045	35883	32605	37429	32594	
911	0	34508	34153	32839	34151	32402	
912	0	33712	31361	33397	31545	32935	
913	0	33163	29758	33563	29241	33574	
914	0	32804	29467	33389	26741	33847	
915	0	32337	29933	33159	27138	33879	
916	0	32356	29247	32890	30851	33399	
917	0	32048	27638	32278	33693	32931	
918	0	31736	25979	32057	36399	31651	
919	0	31962	27493	32419	35729	31231	
920	0	32053	29631	32460	30397	31807	
921	0	31554	32726	32133	27083	32095	
922	0	31198	35106	32131	33222	32858	
923	0	30956	39157	32323	38432	33710	
924	0	31424	40745	32835	42020	33495	
925	0	32116	39367	33046	42034	32987	
926	0	33329	36711	33152	39527	32901	
927	0	34288	35810	32979	32772	32852	
928	0	34784	36690	33117	27258	32253	
929	0	34424	38741	33192	25887	32380	
930	0	34043	36419	33038	27649	31870	
931	0	33352	32082	32705	31787	31842	
932	0	32699	27215	32449	31287	33186	
933	0	32500	24206	32084	31525	33296	
934	0	32752	24144	32337	23390	32460	
935	0	33093	27633	32484	19923	31733	
936	0	32890	32442	32576	22041	32890	
937	0	32922	36758	32612	31744	33798	
938	0	32752	37814	32672	43506	33856	
939	0	33154	37709	32634	47538	33452	
940	0	33139	36871	32679	44359	33107	
941	0	33008	36003	32709	40112	33124	
942	0	32736	33963	32734	38343	33619	
943	0	32675	32771	32827	38312	32871	
944	0	33320	33690	33086	36295	31406	
945	0	33477	35271	33019	34349	30743	
946	0	32612	33612	32988	30428	31778	
947	0	31898	29608	33152	20747	33119	
948	0	31314	26772	32950	19275	33767	
949	0	31000	25760	32989	25088	34439	
950	0	31064	26624	31994	31213	33950	
951	0	31426	28192	31831	35640	33494	
952	0	31812	29563	32539	38556	31613	
953	0	32526	31077	33005	39965	32071	
954	0	33266	32883	32911	37939	33027	
955	0	34170	34246	32577	34966	32751	
956	0	34753	35515	32602	32826	32905	
957	0	34406	37895	32812	29379	32590	
958	0	33719	39719	32886	26112	32559	
959	0	32976	36987	33080	26443	32836	
960	0	32746	30937	33472	27949	32871	
961	0	33173	25958	33695	32522	32768	
962	0	33584	24276	33475	34838	32766	
963	0	33644	24981	32239	34449	32878	
964	0	33406	27320	32403	31435	32987	
965	0	32696	32122	33049	31698	33270	
966	0	32073	37403	33159	33749	33444	
967	0	31261	41543	32853	33648	33095	
968	0	31389	43707	32647	34978	32868	
969	0	31448	41217	31861	32261	32919	
970	0	32048	36349	31090	28781	32805	
971	0	33204	29922	31436	28275	32874	
972	0	33961	25631	31610	30267	31930	
973	0	34564	25793	32280	35714	32537	
974	0	34389	26403	32895	37613	32429	
975	0	33374	28125	32543	36258	32683	
976	0	32619	29407	32703	34695	33138	
977	0	32064	32315	32864	33012	33437	
978	0	31544	36253	33138	30270	33138	
979	0	30576	38064	33122	28768	32890	
980	0	29712	39331	33023	32999	32803	
981	0	29342	39802	33075	35222	31664	
982	0	29884	37965	32906	33010	31943	
983	0	30914	34592	32698	37202	32711	
984	0	33120	31509	32632	41818	33376	
985	0	35527	31559	32797	41503	33287	
986	0	37044	33062	32608	37024	32711	
987	0	37152	34249	32494	32079	32545	
988	0	35928	34047	32883	27359	32337	
989	0	34252	31602	33099	28257	32525	
990	0	32928	27812	33066	27639	32706	
991	0	31880	26306	33133	29268	32448	
992	0	31352	24041	33091	32732	33095	
993	0	31194	24537	33095	35286	33079	
994	0	31064	29482	33165	35387	33573	
995	0	31094	35177	33158	33913	33575	
996	0	32142	39633	33190	33898	33309	
997	0	33276	41287	33280	34275	33059	
998	0	33792	41038	33227	29839	33163	
999	0	33848	39826	32877	23665	33190	
1000	0	33730	38315	32662	19113	32843	
1001	0	33301	35089	32300	23047	32736	
1002	0	33032	30853	32352	30880	32718	
1003	0	33168	26466	32144	42146	32993	
1004	0	33624	24876	32436	52867	32732	
1005	0	33136	25467	32413	44907	32608	
1006	0	32248	26431	32622	32666	32612	
1007	0	31904	29413	32484	22201	32191	
1008	0	32133	34448	32134	18802	32284	
1009	0	32553	37575	32334	21029	32301	
1010	0	32907	36317	32598	26093	32435	
1011	0	33480	34080	32919	32456	32588	
1012	0	33964	32199	32953	41979	31980	
1013	0	33836	31364	33064	48763	32384	
1014	0	32750	30548	32924	52371	33348	
1015	0	31589	30067	32902	49727	33458	
1016	0	30784	30662	32829	42384	33500	
1017	0	30440	31549	32803	32594	33479	
1018	0	31106	31687	32826	26842	33263	
1019	0	32205	31376	32557	25743	33218	
1020	0	33456	31058	32572	23678	33507	
1021	0	34642	33460	32577	23523	33768	
1022	0	34842	37636	32591	21909	33422	
1023	0	34368	41088	32919	25641	31288	
1024	0	33482	41199	33112	30583	32027	
1025	0	33040	39815	33081	34471	32237	
1026	0	32480	36228	32960	35665	32550	
1027	0	32320	30547	32749	35664	32135	
1028	0	32103	27939	32739	37619	32400	
1029	0	31629	27721	32610	33368	32796	
1030	0	31548	27512	32812	27523	33131	
1031	0	31408	26531	32863	25965	32251	
1032	0	31320	25223	32899	30279	32065	
1033	0	31569	24707	32899	32123	32473	
1034	0	32341	25174	32775	33494	33505	
1035	0	33210	28542	32595	35184	33372	
1036	0	34414	32409	32593	35023	32851	
1037	0	35224	34405	32615	35776	32692	
1038	0	35385	38188	32554	30900	32825	
1039	0	34912	40724	32566	28611	32992	
1040	0	33680	41970	32684	29159	32879	
1041	0	32768	42802	32877	32476	32807	
1042	0	32272	41760	32975	33447	33131	
1043	0	32135	39355	33023	32590	33053	
1044	0	31846	35237	32740	34247	33255	
1045	0	31962	30063	32649	40272	32928	
1046	0	32233	26337	32715	42318	32893	
1047	0	31944	23399	32470	40954	32916	
1048	0	32112	22430	32481	36189	31427	
1049	0	32448	23893	32792	32967	33103	
1050	0	33420	26061	33031	31631	34251	
1051	0	34400	31184	32793	32667	33848	
1052	0	34183	37893	32787	33378	32156	
1053	0	33688	41136	33106	30439	32312	
1054	0	33330	41281	33085	26631	32741	
1055	0	32587	39318	32879	23875	33139	
1056	0	31533	36413	32859	23473	32785	
1057	0	30879	33106	32941	25089	32479	
1058	0	31068	28969	32800	32570	32564	
1059	0	31684	26679	32982	40473	33074	
1060	0	31826	26311	33036	42535	33125	
1061	0	32320	27562	32549	35824	32347	
1062	0	32552	30400	32263	25846	32532	
1063	0	32704	35074	32514	21145	32743	
1064	0	32736	40161	32795	24007	32839	
1065	0	33112	43131	33121	31952	32827	
1066	0	33705	40400	33466	35983	32937	
1067	0	33754	36000	32775	39985	32918	
1068	0	33576	32809	31983	42656	32323	
1069	0	32976	29837	31623	42883	32677	
1070	0	31972	29609	31291	42870	33058	
1071	0	31032	27776	32165	40967	33213	
1072	0	30436	23783	32122	33678	33552	
1073	0	30472	22290	31663	32403	33858	
1074	0	31372	23525	31991	31922	33471	
1075	0	33589	27067	32500	33366	32570	
1076	0	35532	31791	32954	35920	32681	
1077	0	36416	35381	33307	36352	32758	
1078	0	35966	36409	33312	33277	31920	
1079	0	35588	36786	33328	27798	32530	
1080	0	34774	36320	33382	17925	32705	
1081	0	33688	37218	33378	12547	32583	
1082	0	33202	39309	33533	17914	32983	
1083	0	32892	42205	33442	27667	33169	
1084	0	32553	43261	33137	36854	33135	
1085	0	31858	40396	33056	42811	32533	
1086	0	31677	35122	32992	45532	32784	
1087	0	32169	28200	32838	39737	32761	
1088	0	32721	23286	32563	29617	32704	
1089	0	33216	21823	32353	23860	33165	
1090	0	33160	23043	31693	24467	33339	
1091	0	33312	24608	31588	28640	33309	
1092	0	33388	26981	31905	34728	33671	
1093	0	33568	30501	32238	36610	34160	
1094	0	33673	34952	32306	39943	33788	
1095	0	33107	37488	32672	43745	32594	
1096	0	31984	39587	33022	43370	31917	
1097	0	31325	39623	33191	42107	31910	
1098	0	31488	36632	33078	35421	32163	
1099	0	32481	34782	32933	28765	31443	
1100	0	33474	32443	32792	26877	31261	
1101	0	34043	30882	32800	28235	33683	
1102	0	33750	31020	32919	30001	35147	
1103	0	33618	30535	33047	31808	33559	
1104	0	33070	30327	32878	30821	31803	
1105	0	32775	31275	32731	28501	32675	
1106	0	32301	30861	32724	27252	33410	
1107	0	32160	30819	32865	26676	32775	
1108	0	31482	31544	32908	22870	31869	
1109	0	30650	31797	32987	25411	31043	
1110	0	31109	32372	32941	32057	30671	
1111	0	32386	31687	32688	40308	32561	
1112	0	33033	29454	32568	44419	34302	
1113	0	32775	27868	32640	39529	34230	
1114	0	32748	27535	32773	28092	33668	
1115	0	32129	30204	32794	21243	33408	
1116	0	31566	32960	32787	21013	32886	
1117	0	31616	35655	32827	29198	32284	
1118	0	31950	38832	32801	41991	32323	
1119	0	33119	42352	32880	51732	33048	
1120	0	33660	44290	32957	49157	33008	
1121	0	34024	42498	32963	36492	33077	
1122	0	33558	37176	32757	32196	32870	
1123	0	32723	33207	32831	32407	33088	
1124	0	32284	31265	32912	36057	33125	
1125	0	31826	29363	32741	37515	32961	
1126	0	31999	28956	32551	34753	32077	
1127	0	31584	29888	32530	32583	32610	
1128	0	31645	30437	32751	33472	33119	
1129	0	32430	30610	32801	30424	33209	
1130	0	33544	30046	32583	28521	32832	
1131	0	34468	28959	32359	27511	32039	
1132	0	35002	26987	32421	27933	32144	
1133	0	35076	25710	32569	27744	32405	
1134	0	34568	27751	32768	26499	32981	
1135	0	33366	30491	32922	29133	33108	
1136	0	32400	31966	33121	32487	32893	
1137	0	32071	32244	33105	32687	32595	
1138	0	31909	32103	33030	33930	32882	
1139	0	31942	32483	32623	34792	33077	
1140	0	32107	32775	32295	35110	32869	
1141	0	32024	32939	32096	33064	32731	
1142	0	31672	34634	32295	25828	32775	
1143	0	31734	35648	32333	19985	32616	
1144	0	31858	35917	32386	22521	32455	
1145	0	31933	36786	32527	29346	32514	
1146	0	32071	35714	32539	38919	32820	
1147	0	32404	35441	32581	46842	32751	
1148	0	32837	36119	32829	49704	32681	
1149	0	32656	38247	33138	46135	32899	
1150	0	32544	39850	33259	36836	32680	
1151	0	32680	40582	33251	29499	32935	
1152	0	32662	37759	33024	29875	33005	
1153	0	32782	33639	33107	28855	32833	
1154	0	32924	31079	33088	31801	32722	
1155	0	33129	28460	32928	32582	32608	
1156	0	32964	26003	32857	32117	32697	
1157	0	32706	23866	32876	31687	32300	
1158	0	32875	25542	32939	31847	32495	
1159	0	32541	29583	32754	29969	32552	
1160	0	32056	31986	32634	28825	32530	
1161	0	32176	31837	32664	25833	32967	
1162	0	32189	31047	32519	25735	33003	
1163	0	32597	29056	32536	30951	32768	
1164	0	33533	27308	32568	41118	32883	
1165	0	34059	27031	32489	42325	33315	
1166	0	34205	29059	32405	34589	33389	
1167	0	34370	31785	32413	28182	32872	
1168	0	33804	34789	32501	28438	32980	
1169	0	33197	37895	32622	34231	32902	
1170	0	32765	40139	32775	38445	32845	
1171	0	32553	40656	32826	40815	33277	
1172	0	32904	38942	32862	39480	33223	
1173	0	33088	37982	32863	36686	33093	
1174	0	33122	35195	32919	31460	32926	
1175	0	32705	32997	32975	30051	33026	
1176	0	32040	31335	32873	32229	33325	
1177	0	31533	30293	32832	30424	32977	
1178	0	30740	30593	32832	24901	32226	
1179	0	30572	31965	32839	24675	31546	
1180	0	31764	33499	32871	28605	31436	
1181	0	33175	34330	32804	31619	32075	
1182	0	33865	35117	32706	33275	32679	
1183	0	34937	34676	32666	32301	33394	
1184	0	35324	34407	32512	30529	34113	
1185	0	34646	33209	32384	28750	34378	
1186	0	33495	32631	32207	25475	33836	
1187	0	32704	33043	32391	22619	33220	
1188	0	32468	31751	32465	25159	33019	
1189	0	32292	29029	32878	36169	33448	
1190	0	31928	26150	33128	48337	32696	
1191	0	31950	24428	33107	55249	32297	
1192	0	32228	25139	33014	51186	32931	
1193	0	32562	26525	33025	42476	33093	
1194	0	33150	26750	33296	32950	32662	
1195	0	33756	29142	33316	26578	32093	
1196	0	33668	32257	32237	24819	31568	
1197	0	33078	34852	31237	28250	31632	
1198	0	32250	36667	31942	31949	32479	
1199	0	31304	37991	32743	34268	32839	
1200	0	31005	39291	33010	34191	32999	
1201	0	30790	40083	33055	31795	32575	
1202	0	30919	39201	33099	32237	32576	
1203	0	31427	37895	33095	30805	32739	
1204	0	32594	34554	32800	28985	33147	
1205	0	33685	30619	32771	28546	33275	
1206	0	34482	27495	32679	28923	33251	
1207	0	34924	25814	32723	30907	33528	
1208	0	34540	27983	32921	32917	33249	
1209	0	33868	31595	32896	33928	33095	
1210	0	33276	33307	32839	33461	33179	
1211	0	32548	32250	32839	33206	33089	
1212	0	32293	29956	32813	34449	33087	
1213	0	32348	28701	32822	32746	32890	
1214	0	32386	31144	32775	26119	32775	
1215	0	32297	35436	32816	16616	33092	
1216	0	31972	38746	32800	17648	33287	
1217	0	31928	40797	32838	26790	33233	
1218	0	32176	40102	32835	39140	33120	
1219	0	32366	37383	32797	42150	32935	
1220	0	32656	35391	32767	44255	32159	
1221	0	33040	36154	32720	45207	31768	
1222	0	33188	36359	32758	46691	31494	
1223	0	32906	35469	32659	39719	31234	
1224	0	32818	33066	32547	34675	31499	
1225	0	33160	30677	32548	35719	31419	
1226	0	33459	28211	32500	40204	31853	
1227	0	33240	26298	32420	36888	32670	
1228	0	32918	25392	32491	31677	33351	
1229	0	32754	24607	32549	25061	33451	
1230	0	32555	24506	32718	23880	34214	
1231	0	32824	26994	32723	25255	34551	
1232	0	32829	29767	32775	27215	33985	
1233	0	32600	31719	32813	26793	33568	
1234	0	32327	34527	32819	27082	32671	
1235	0	32637	37669	32731	28091	30806	
1236	0	32887	37855	32867	28807	30797	
1237	0	32774	37447	32937	29305	32693	
1238	0	32648	39487	32821	31221	33167	
1239	0	32611	41543	32762	36509	33198	
1240	0	32038	41143	32775	38802	33089	
1241	0	31833	38311	32813	33627	32775	
1242	0	32156	33511	32825	28269	32805	
1243	0	32105	28737	32865	27842	32590	
1244	0	32100	27654	32853	33823	33069	
1245	0	32375	28532	32707	43044	32711	
1246	0	32685	30331	32624	52871	33157	
1247	0	33329	31535	32541	47989	33062	
1248	0	33904	30628	32582	36987	33210	
1249	0	34560	27640	32829	31448	32741	
1250	0	34813	26931	32647	31929	33405	
1251	0	34176	30271	32678	31574	33174	
1252	0	33498	35043	32650	30164	32851	
1253	0	33170	35621	32805	27532	32681	
1254	0	33016	31666	32704	19333	32608	
1255	0	32428	28749	32515	17542	32759	
1256	0	32283	28399	32431	24890	32902	
1257	0	32592	30266	32570	36330	32877	
1258	0	32436	33400	32686	44794	32853	
1259	0	32482	33671	32771	46983	32936	
1260	0	32570	32454	32900	41474	32594	
1261	0	32461	31310	32869	32620	33010	
1262	0	32392	31144	32672	22336	32819	
1263	0	32003	29989	32774	15464	32214	
1264	0	31744	30613	32865	20419	33035	
1265	0	31688	32297	33017	27885	33613	
1266	0	32192	36249	32952	33655	33399	
1267	0	33287	40220	32875	39046	32893	
1268	0	33778	41851	32863	38573	32049	
1269	0	33360	42018	32868	35999	32301	
1270	0	33031	40453	32775	31888	32617	
1271	0	32612	36139	32534	37746	32977	
1272	0	32594	31032	32450	44850	33187	
1273	0	32837	27314	32377	43693	33009	
1274	0	33040	24619	32365	35992	32612	
1275	0	33370	23239	32500	28988	32165	
1276	0	33468	22577	32687	28479	32550	
1277	0	33411	23824	32902	26478	32934	
1278	0	32768	26011	32789	26343	33023	
1279	0	32192	28887	32850	27349	32859	
1280	0	32104	32795	32873	29298	32898	
1281	0	32491	36352	32875	30342	32775	
1282	0	32961	40209	32883	29951	32825	
1283	0	33010	43832	32851	36050	32816	
1284	0	32455	44743	32775	39456	32792	
1285	0	32080	44187	32891	37792	32631	
1286	0	31995	41778	32903	32711	32843	
1287	0	32048	36762	32719	30479	33012	
1288	0	31999	33137	32692	33769	32907	
1289	0	32116	30551	32643	34592	32545	
1290	0	32950	27111	32647	36475	32748	
1291	0	34044	25829	32701	35619	32839	
1292	0	34434	28010	33004	23778	32992	
1293	0	34360	30879	32994	21311	32952	
1294	0	33716	32310	32770	28838	32809	
1295	0	33024	33024	32215	35377	32787	
1296	0	32720	33575	31942	39678	32866	
1297	0	33121	33614	32613	42818	32795	
1298	0	33353	34758	33011	43433	32972	
1299	0	33390	35535	33208	41330	32558	
1300	0	33215	34260	32691	34768	32117	
1301	0	32600	31372	32309	27189	32633	
1302	0	32044	30651	32583	22681	32933	
1303	0	31577	32687	32661	18555	33167	
1304	0	31211	33829	32744	22905	33357	
1305	0	30982	33369	32430	31930	32824	
1306	0	31005	31617	32343	38607	32648	
1307	0	31644	28026	32109	39083	32570	
1308	0	33032	27182	31718	35419	32336	
1309	0	34244	28145	31536	30185	32420	
1310	0	34320	30471	31625	23068	32587	
1311	0	33694	32839	32408	18229	33089	
1312	0	33212	35335	32978	22493	32986	
1313	0	32710	38760	33416	40765	32816	
1314	0	32144	40000	33618	58368	33504	
1315	0	32057	40327	33645	57839	33829	
1316	0	32513	37592	33496	45016	32949	
1317	0	32824	30736	33277	33596	33036	
1318	0	32803	22845	33234	30802	32918	
1319	0	32852	19896	33371	30030	33544	
1320	0	32961	20074	33544	25697	33336	
1321	0	32839	23508	33463	24861	32189	
1322	0	32512	27193	33515	26607	32039	
1323	0	32180	31139	33240	26646	32477	
1324	0	31923	34503	33117	28539	32075	
1325	0	31952	37625	32996	30436	31289	
1326	0	31984	41061	32960	32595	32199	
1327	0	31890	42050	32943	33927	32683	
1328	0	31926	44055	33078	33991	33125	
1329	0	32072	45522	32889	29877	32729	
1330	0	31890	44573	32775	27351	32646	
1331	0	32603	40230	32604	24432	32825	
1332	0	33137	35505	32519	20596	32919	
1333	0	33860	29628	32569	23433	31944	
1334	0	34964	23491	32504	29934	32420	
1335	0	35566	19821	32208	41316	33538	
1336	0	35566	19899	32328	54962	33120	
1337	0	35013	21982	32557	59151	32664	
1338	0	33848	25524	32805	51180	33213	
1339	0	33204	27862	32684	38395	33664	
1340	0	32869	30055	32827	29144	33134	
1341	0	32752	34462	32707	25830	32905	
1342	0	32208	37581	32775	27683	33264	
1343	0	31728	38519	32821	30350	33195	
1344	0	31489	38179	32832	31283	33042	
1345	0	31656	38078	32809	29067	32907	
1346	0	31776	38569	32775	29319	32950	
1347	0	32400	38500	32771	31586	32703	
1348	0	32907	36803	32630	32599	32650	
1349	0	33248	32343	32727	32691	32619	
1350	0	33806	28900	32758	32287	32912	
1351	0	34064	26607	32661	29789	33050	
1352	0	33976	26113	32775	26278	32997	
1353	0	33261	28044	32587	24200	32925	
1354	0	32232	32206	32505	28852	32738	
1355	0	31483	36867	32630	33592	32855	
1356	0	30890	38646	32705	34650	33176	
1357	0	30401	35416	32657	33259	33221	
1358	0	30466	31490	32747	25927	32960	
1359	0	31450	29861	32749	27334	32111	
1360	0	32400	28851	32583	33349	32741	
1361	0	33922	27271	32588	35062	32877	
1362	0	35357	27022	32789	34859	32989	
1363	0	35747	29015	32631	40598	33032	
1364	0	35265	31662	32717	46709	33022	
1365	0	34448	34493	32790	41055	32642	
1366	0	33710	38253	32797	29696	32873	
1367	0	32470	40700	32808	22640	32588	
1368	0	31720	42115	32846	23401	32583	
1369	0	31849	42209	32839	27165	32829	
1370	0	32263	43552	32817	35312	32878	
1371	0	32152	43436	32807	42975	32762	
1372	0	31696	40711	32848	43665	32630	
1373	0	31616	35305	32630	39816	32605	
1374	0	31332	29568	32430	34311	32583	
1375	0	31768	25575	32441	33789	32596	
1376	0	32868	24305	32293	36995	32775	
1377	0	33984	23149	32655	35523	32750	
1378	0	34144	22388	32851	30044	32876	
1379	0	33866	24845	32821	25309	32980	
1380	0	33296	28495	32848	19886	32950	
1381	0	32885	31405	33167	18522	32967	
1382	0	32326	33527	33033	23114	32941	
1383	0	32068	34394	32325	29609	32728	
1384	0	32352	32765	32337	39782	32827	
1385	0	33227	33065	32652	44611	32354	
1386	0	33561	33767	32720	41025	32563	
1387	0	33312	32951	32839	33977	32878	
1388	0	33184	31075	32813	32082	32848	
1389	0	32794	29436	32668	34815	32951	
1390	0	32948	29080	32711	36819	33320	
1391	0	32982	29871	32807	37083	33047	
1392	0	32740	32991	32892	32993	33061	
1393	0	32518	36615	32909	29591	32625	
1394	0	32452	39598	32991	27344	32575	
1395	0	32613	39911	32976	27820	32775	
1396	0	32393	37725	32878	26342	32872	
1397	0	32201	35328	32772	26031	32740	
1398	0	32354	32888	32749	28481	32787	
1399	0	32572	31510	32661	33287	32907	
1400	0	32559	31612	32644	39568	32749	
1401	0	32244	32903	32629	45061	32527	
1402	0	32114	34512	32710	42085	32713	
1403	0	32718	34898	32809	32361	32816	
1404	0	32794	33068	32896	24098	32797	
1405	0	32826	31037	32749	24807	32873	
1406	0	33118	31431	32707	30575	32965	
1407	0	32945	32011	32583	35015	32950	
1408	0	32602	30988	32476	36967	32798	
1409	0	32406	29715	32717	37811	32852	
1410	0	32552	29693	32695	37099	32895	
1411	0	32898	29826	32645	35919	32898	
1412	0	33484	30316	32675	32611	33091	
1413	0	33520	33744	32661	29421	33073	
1414	0	33302	38333	32763	29225	33126	
1415	0	32836	42283	32825	28995	33132	
1416	0	32092	43250	32933	24945	32890	
1417	0	31660	42416	32944	27363	32543	
1418	0	32144	38228	32873	34525	32800	
1419	0	32984	34134	32813	40697	33025	
1420	0	33764	28980	32848	43894	32864	
1421	0	33714	23396	32694	42130	32848	
1422	0	33368	20672	32815	34092	32662	
1423	0	33472	21640	32952	23522	32338	
1424	0	33187	23959	32947	16620	32539	
1425	0	32839	24927	32906	17523	32615	
1426	0	32712	25899	32903	25938	32994	
1427	0	32549	29148	32622	35759	33148	
1428	0	32194	33010	32485	43680	32912	
1429	0	32025	37094	32557	48820	32566	
1430	0	32218	40192	32658	51110	32740	
1431	0	32693	42874	32847	45737	32896	
1432	0	33358	43712	32864	36599	32896	
1433	0	32864	42456	32764	25031	33016	
1434	0	31981	39214	32741	18286	33044	
1435	0	31330	33848	32775	16179	32923	
1436	0	32064	29221	32892	17203	32801	
1437	0	33240	25106	32852	21262	32634	
1438	0	34115	25290	33018	28421	32691	
1439	0	34468	27165	32805	41479	32621	
1440	0	34124	28437	32664	50568	32930	
1441	0	33562	32509	32531	53746	33159	
1442	0	32672	34347	32589	48349	33139	
1443	0	31972	32827	32654	40787	32561	
1444	0	31624	29267	32646	33120	32309	
1445	0	31898	26183	32700	25406	32404	
1446	0	32516	24330	32674	20100	32600	
1447	0	33252	26896	32739	15430	32770	
1448	0	34067	32539	32965	20276	32861	
1449	0	34109	37114	33078	30469	32608	
1450	0	33784	39096	33088	38343	32893	
1451	0	33565	38995	32934	44109	32904	
1452	0	33303	37555	32634	45171	32959	
1453	0	32760	35335	32639	41760	32903	
1454	0	32038	33178	32643	37917	32851	
1455	0	31517	31348	32311	33306	32469	
1456	0	31089	30120	32334	27607	32263	
1457	0	30975	30969	32399	25480	32383	
1458	0	31709	32944	32238	21069	32473	
1459	0	32418	35892	32241	21852	32795	
1460	0	32878	37678	32143	25433	33143	
1461	0	33412	39634	31936	28538	33349	
1462	0	33872	40642	32335	29741	33315	
1463	0	33923	40095	32837	32765	33563	
1464	0	33434	38568	33011	35456	33133	
1465	0	32706	35867	32775	37970	32533	
1466	0	32203	32910	32928	38454	32456	
1467	0	32040	29586	32906	39712	32558	
1468	0	31828	25141	32553	40237	33262	
1469	0	32076	22769	32845	37645	33533	
1470	0	32552	23013	33123	35817	34230	
1471	0	33445	25598	33323	33110	34079	
1472	0	33719	27697	33554	32848	33331	
1473	0	33887	29831	33583	33505	33051	
1474	0	33875	32263	33267	31208	31643	
1475	0	33077	33926	32973	28385	30457	
1476	0	32308	35728	33066	27380	31192	
1477	0	32201	37310	32950	29819	32108	
1478	0	32321	38120	32644	34241	33095	
1479	0	32431	37586	32629	35766	33579	
1480	0	32484	36073	32205	31215	33551	
1481	0	32716	34722	31200	26855	32571	
1482	0	32686	32583	31055	28763	31291	
1483	0	32424	32097	31851	32455	31959	
1484	0	32348	31415	32873	35590	32128	
1485	0	32500	32775	33487	34447	33081	
1486	0	32320	35899	33564	31141	33107	
1487	0	31942	37701	33572	26202	33190	
1488	0	31570	40080	33345	23821	33302	
1489	0	30925	40606	32775	27306	32594	
1490	0	30560	38327	32163	26767	33594	
1491	0	31565	36021	32425	30745	34075	
1492	0	32829	33480	32556	41234	33764	
1493	0	34596	28740	32633	50306	33001	
1494	0	35412	22227	32738	51369	31988	
1495	0	35510	18483	32796	44576	32477	
1496	0	35156	17300	32957	34823	33088	
1497	0	34343	18797	32775	33319	33626	
1498	0	34032	23097	32866	36121	33567	
1499	0	33773	27817	32937	34738	33394	
1500	0	33352	32053	32933	28354	32157	
1501	0	33025	35627	32960	24353	31815	
1502	0	32485	37725	32967	26107	32063	
1503	0	32232	37651	33059	28871	32443	
1504	0	31726	34935	32946	26816	32525	
1505	0	31503	32871	32990	28442	32911	
1506	0	31558	33787	32998	30253	33129	
1507	0	31488	35994	32967	31055	32920	
1508	0	31689	37615	32882	32861	32945	
1509	0	31968	36707	32760	30131	33001	
1510	0	32449	37065	32671	29437	32704	
1511	0	33400	37095	32536	33616	32561	
1512	0	33933	37763	32357	37595	32730	
1513	0	33772	36897	32065	34823	32791	
1514	0	33475	35335	32238	41962	32909	
1515	0	33395	33752	32517	45761	32839	
1516	0	33075	31346	32684	36672	32707	
1517	0	32762	27261	32647	26548	32946	
1518	0	32701	25469	32720	19909	33176	
1519	0	32685	24991	32755	20038	33232	
1520	0	32752	26838	32765	28885	32853	
1521	0	32988	29712	32725	40993	32741	
1522	0	32441	32507	32722	45621	33025	
1523	0	32662	35460	32793	43695	32987	
1524	0	32924	37720	32842	36824	32020	
1525	0	32919	37453	32884	28133	31596	
1526	0	32669	36800	32886	24713	32391	
1527	0	32069	35951	32872	27166	32804	
1528	0	31368	34424	32889	32934	32528	
1529	0	31090	30417	33154	35632	32877	
1530	0	30683	28903	33276	34855	33351	
1531	0	30722	32492	33264	27120	33399	
1532	0	30897	38151	33309	20583	33176	
1533	0	31312	42150	33187	23788	33211	
1534	0	31885	40148	32602	33198	32285	
1535	0	32850	33588	32009	45096	32186	
1536	0	34120	26134	32152	47037	32701	
1537	0	35610	22008	31941	37548	32820	
1538	0	36550	21482	32277	29842	32982	
1539	0	36277	24491	32422	29545	32813	
1540	0	35315	27173	32093	32675	32809	
1541	0	33667	29721	31807	33227	32757	
1542	0	32580	33351	31954	30579	32878	
1543	0	32068	35294	32263	27713	32916	
1544	0	32101	33532	32637	26475	32786	
1545	0	32236	30226	32834	29395	33138	
1546	0	32348	28320	33168	37808	33090	
1547	0	32666	29040	33411	44998	33305	
1548	0	32817	31803	33370	46000	33901	
1549	0	33084	34903	33324	39734	32699	
1550	0	33468	36624	33371	31370	32626	
1551	0	32840	39075	33248	27733	31993	
1552	0	32274	39821	33114	27165	32557	
1553	0	32150	39591	33031	25853	33311	
1554	0	32211	38637	32768	26448	33121	
1555	0	32283	37011	32229	28150	32805	
1556	0	32513	36359	31323	31859	32491	
1557	0	32384	35107	31635	34247	32653	
1558	0	32290	35281	32570	34589	32534	
1559	0	32031	35783	33140	28790	32207	
1560	0	32120	35643	33427	23914	32276	
1561	0	32115	35885	33415	27073	32453	
1562	0	32013	36013	32603	31709	32453	
1563	0	31944	33699	31363	36785	32327	
1564	0	32532	30117	31809	39397	32841	
1565	0	33704	25914	32548	42392	33429	
1566	0	34498	22991	32805	42169	33961	
1567	0	34498	23079	32931	36301	34264	
1568	0	34011	25250	32985	32095	34055	
1569	0	33484	26523	33174	31501	33787	
1570	0	33031	29020	33138	29670	33523	
1571	0	32631	30829	33151	28759	33005	
1572	0	32608	33377	33287	27195	31781	
1573	0	32263	34933	33238	29483	31076	
1574	0	31849	35725	33250	33868	30912	
1575	0	31488	35659	33217	39427	30809	
1576	0	31302	35937	33267	40425	32141	
1577	0	31258	35841	33220	32675	33335	
1578	0	31297	35161	32879	25966	33336	
1579	0	31817	35889	32183	25245	33381	
1580	0	32811	36087	32317	27239	33339	
1581	0	33377	37089	32416	23772	32752	
1582	0	33479	37202	32421	26975	32797	
1583	0	33637	36773	32230	31235	33321	
1584	0	33846	36466	32122	33686	33415	
1585	0	33900	35818	32382	38635	33133	
1586	0	33718	34344	32789	45549	33190	
1587	0	33320	32951	32815	45399	33415	
1588	0	33353	32891	32803	41111	33238	
1589	0	33108	31289	32943	37976	32837	
1590	0	32997	28631	32903	39360	32545	
1591	0	32868	26164	32807	37132	32470	
1592	0	32888	23273	32789	33967	32720	
1593	0	32768	21973	32857	31867	32840	
1594	0	32909	21322	32683	29403	32432	
1595	0	33033	21494	32637	28299	32443	
1596	0	33086	23503	32663	28398	32576	
1597	0	33422	25768	32749	27631	32583	
1598	0	33472	30031	32821	26695	33336	
1599	0	33305	35624	32701	27851	33312	
1600	0	32624	41031	32859	30063	33062	
1601	0	31909	43982	33005	29497	32731	
1602	0	31387	43804	33005	27530	32736	
1603	0	31037	42170	32945	26531	33063	
1604	0	30801	39491	32967	29515	33378	
1605	0	30742	37277	32848	31111	32832	
1606	0	31348	35819	32775	36294	32139	
1607	0	32392	35143	32903	35080	32231	
1608	0	33404	34683	32972	32729	32711	
1609	0	33696	34212	32839	25933	32873	
1610	0	33676	32313	32775	25583	32855	
1611	0	33687	30919	32887	28355	32834	
1612	0	33337	31083	32791	32997	32797	
1613	0	32760	29667	32760	43261	32712	
1614	0	33170	28264	32736	55040	32566	
1615	0	33760	27992	32153	59315	32691	
1616	0	34194	28705	31239	53295	32691	
1617	0	34396	29477	31468	40614	32805	
1618	0	34073	29090	32140	27192	33109	
1619	0	33448	28333	32472	20760	33101	
1620	0	33018	28637	32824	21215	32898	
1621	0	32875	29455	32997	22618	32813	
1622	0	32647	31505	32991	24932	32531	
1623	0	32142	33927	32969	28322	33033	
1624	0	31910	36477	32883	29471	33132	
1625	0	31780	41040	32930	29628	32911	
1626	0	31192	45954	33107	31777	32893	
1627	0	31168	47744	33175	34526	32071	
1628	0	32045	44301	33241	33578	31973	
1629	0	32821	35576	32861	30988	32742	
1630	0	33212	23438	32871	30572	33076	
1631	0	33352	16078	32872	33556	33032	
1632	0	33135	17040	32966	34384	32856	
1633	0	32857	21270	32827	32848	32607	
1634	0	32500	27353	32509	33656	32500	
1635	0	32427	32039	32359	33947	33026	
1636	0	32474	31913	32481	33062	33525	
1637	0	32867	30507	32729	32647	33501	
1638	0	32791	31527	32889	31941	33367	
1639	0	32549	33397	33037	33586	33064	
1640	0	32386	36291	32696	33967	32805	
1641	0	32737	39390	32755	34082	33085	
1642	0	33349	40313	33242	31178	33226	
1643	0	34069	40994	33467	28073	32480	
1644	0	34250	39971	33624	28797	31737	
1645	0	34094	37767	33383	30769	32409	
1646	0	34100	36866	33181	31623	32723	
1647	0	33430	35787	32549	33667	32837	
1648	0	32174	33426	31998	30644	32739	
1649	0	31252	32908	32220	22302	32741	
1650	0	30800	33986	32575	20321	32720	
1651	0	30891	34756	32360	25075	32869	
1652	0	31017	34701	32560	40372	33163	
1653	0	30890	33464	32736	54989	32921	
1654	0	31102	33125	31876	59975	32608	
1655	0	31619	33907	30485	55931	32610	
1656	0	32306	34616	31722	42936	32696	
1657	0	32964	33200	32560	29387	32432	
1658	0	33936	30116	32809	21698	32357	
1659	0	34672	28288	32832	18562	32253	
1660	0	35160	26356	32585	18724	33399	
1661	0	35036	24410	33040	22665	33626	
1662	0	34472	22501	32928	26554	33450	
1663	0	34178	22235	32597	29739	32977	
1664	0	34032	26287	33152	34009	32832	
1665	0	33804	33408	33338	40388	32976	
1666	0	33616	39354	33282	42959	32871	
1667	0	32909	41784	33243	42768	32683	
1668	0	32068	38167	33158	36819	32829	
1669	0	31508	31860	33131	31368	32390	
1670	0	31350	26860	33089	25264	32321	
1671	0	31382	24183	33206	26746	32514	
1672	0	31427	24692	33188	32985	32898	
1673	0	31835	26600	33043	36975	33277	
1674	0	32943	29522	33113	33745	33270	
1675	0	33991	32395	33159	24772	32789	
1676	0	34115	32880	33082	20649	32685	
1677	0	33906	33737	32895	23734	32493	
1678	0	33656	34844	32478	31994	32304	
1679	0	32908	36045	32547	40671	32411	
1680	0	32164	38776	32803	46712	33044	
1681	0	32085	42062	32857	47891	33316	
1682	0	32384	44148	32872	41754	33245	
1683	0	32424	43335	32996	27120	33370	
1684	0	32620	40681	32914	20839	33223	
1685	0	32848	37484	32811	28456	33086	
1686	0	32760	33799	32573	36653	31480	
1687	0	32607	29406	32149	37837	30557	
1688	0	32215	24484	32320	37303	31507	
1689	0	31799	21769	32461	34089	32895	
1690	0	31818	21696	31789	31081	32749	
1691	0	32305	23143	31653	29599	32879	
1692	0	32495	27271	32371	29414	33315	
1693	0	32493	30855	32805	29110	33203	
1694	0	32752	32541	33095	28834	33367	
1695	0	33020	34023	33216	28912	33491	
1696	0	33877	34759	33415	26902	33650	
1697	0	34048	36182	33654	29408	33959	
1698	0	33868	38736	33547	36560	34154	
1699	0	33875	42025	33333	37451	34331	
1700	0	32772	42843	33044	35003	33381	
1701	0	31760	41677	32874	33881	32071	
1702	0	31239	40940	32275	32484	32263	
1703	0	30829	38481	31358	28484	31965	
1704	0	31051	34149	31446	28761	31977	
1705	0	31956	29329	32144	32383	31751	
1706	0	33072	27135	32635	33781	30976	
1707	0	34166	26164	32935	31697	31474	
1708	0	35187	25878	32826	27489	32508	
1709	0	35269	26496	32699	31936	32965	
1710	0	34301	28310	33032	40192	33381	
1711	0	33085	31711	33457	43526	33545	
1712	0	32308	33229	33590	40669	33670	
1713	0	31656	32986	33450	35140	33962	
1714	0	31141	31648	32159	31099	33984	
1715	0	30936	29381	31456	31419	33224	
1716	0	31763	26839	32327	31303	30244	
1717	0	32354	26970	33023	29420	30125	
1718	0	32953	28014	33123	30247	31943	
1719	0	33506	28258	32873	31869	33095	
1720	0	34048	30411	32818	32455	33287	
1721	0	34112	33691	32984	32473	33222	
1722	0	33772	38032	32898	33328	32963	
1723	0	33347	41030	32630	33256	33542	
1724	0	32711	40903	32601	31509	33465	
1725	0	32586	38167	32239	30086	33482	
1726	0	32212	36799	32775	33189	32943	
1727	0	32079	36715	33714	32959	32871	
1728	0	32128	36423	34082	33278	32805	
1729	0	32386	36239	33968	34823	32839	
1730	0	32070	35619	33537	36967	32824	
1731	0	31910	34335	33042	37295	32695	
1732	0	31913	33030	31913	30998	32711	
1733	0	31880	31286	30771	24162	32686	
1734	0	32694	29366	31143	21265	32615	
1735	0	33510	28261	31285	22650	32667	
1736	0	33486	28435	32007	28761	32720	
1737	0	32740	28704	32840	37972	32491	
1738	0	32720	29031	33186	46340	32595	
1739	0	32571	28947	33311	47664	32685	
1740	0	32400	28305	33095	41843	32737	
1741	0	32343	29937	32831	33317	33055	
1742	0	32096	34268	32669	28471	33310	
1743	0	32475	37816	33007	27527	33108	
1744	0	33101	38332	33186	26491	32753	
1745	0	34020	35887	32569	26587	32855	
1746	0	35152	31541	32495	28585	32906	
1747	0	35214	28348	32905	33964	32773	
1748	0	34434	28094	33047	36277	32958	
1749	0	33539	29845	32915	32587	32768	
1750	0	32696	33175	32897	29460	32961	
1751	0	31918	37913	33095	28768	32952	
1752	0	31264	41504	33117	35483	32775	
1753	0	30960	41778	32995	43153	32748	
1754	0	31126	37976	32704	49046	32601	
1755	0	31796	31057	32611	45621	32757	
1756	0	32284	25898	32610	34854	32787	
1757	0	33162	22978	32642	21828	32964	
1758	0	34122	22970	32702	17756	32908	
1759	0	34434	25491	32639	23486	32839	
1760	0	34392	29899	32628	31634	32728	
1761	0	33877	34482	32754	35816	32869	
1762	0	33064	38573	32881	36517	33039	
1763	0	31889	39936	32921	32656	33128	
1764	0	31370	38023	32879	32519	32857	
1765	0	31549	33799	32740	34889	33197	
1766	0	31972	30747	32666	34503	33525	
1767	0	32706	29237	32541	32341	33077	
1768	0	33373	29177	32490	28771	32583	
1769	0	33782	32019	32560	23040	32913	
1770	0	33384	36964	32825	24359	32792	
1771	0	32888	39762	32857	31997	32359	
1772	0	32775	37780	32698	36585	32348	
1773	0	32945	31614	32404	39585	32546	
1774	0	32900	25636	32122	41168	32515	
1775	0	32928	21562	32193	42898	31707	
1776	0	33129	21775	32414	37895	32495	
1777	0	33218	26054	32525	29858	32261	
1778	0	33138	30650	32555	25114	32356	
1779	0	32671	33019	32627	26155	32514	
1780	0	32233	33629	32647	28462	33101	
1781	0	31750	35913	32652	32043	33605	
1782	0	31366	40834	32825	37533	33530	
1783	0	31670	44642	32868	40539	33578	
1784	0	31874	44283	33011	36892	33607	
1785	0	32471	40824	32934	30304	33198	
1786	0	33316	36009	32736	25403	32770	
1787	0	33906	32308	32573	25980	32574	
1788	0	34244	28287	32370	30323	32792	
1789	0	34173	24712	32446	37634	32717	
1790	0	33844	23126	32461	40317	32426	
1791	0	32985	24599	32527	39285	32291	
1792	0	31819	27254	32576	35613	32865	
1793	0	31555	29589	32580	26742	32931	
1794	0	32432	33572	32582	20050	32510	
1795	0	33034	37279	32699	21014	32614	
1796	0	33028	37739	32642	25445	33111	
1797	0	32813	35990	32793	34868	33275	
1798	0	32604	35242	32803	43676	33193	
1799	0	32186	34642	32856	42503	33325	
1800	0	32293	33885	32795	35798	33615	
1801	0	32559	33415	32839	30352	34003	
1802	0	32483	33530	32835	31126	33261	
1803	0	32316	33735	33039	35803	32530	
1804	0	31845	34311	33174	36733	32071	
1805	0	31225	35655	33232	28322	31844	
1806	0	31321	36497	32546	26135	32012	
1807	0	31976	38053	31826	30659	31991	
1808	0	33160	38049	32157	34791	32307	
1809	0	34346	34893	32495	36551	33056	
1810	0	34657	32531	32865	38855	33042	
1811	0	34311	32627	32903	39282	33049	
1812	0	33680	32876	32729	37367	33015	
1813	0	32826	32635	32824	29108	32985	
1814	0	32647	34642	32424	26476	33013	
1815	0	32636	35767	31727	28688	33077	
1816	0	32764	35181	32475	32463	32998	
1817	0	33115	33926	32999	37549	32757	
1818	0	33052	29902	33165	40957	32634	
1819	0	32435	26139	33221	41623	32621	
1820	0	31916	24038	33188	38161	32807	
1821	0	31948	23900	33095	30359	32833	
1822	0	32484	23496	33070	22278	32868	
1823	0	32984	25161	32576	17374	32897	
1824	0	34032	27547	31973	23032	32499	
1825	0	34768	31074	32277	32922	32615	
1826	0	34557	33526	32627	40455	32651	
1827	0	33560	32833	32855	40885	32838	
1828	0	32500	30284	33023	38319	33159	
1829	0	31896	30034	33175	33213	33154	
1830	0	31496	31488	33196	26394	32637	
1831	0	31200	34392	33159	18823	32414	
1832	0	30953	36551	33278	19863	32427	
1833	0	30714	35299	33250	29693	32541	
1834	0	31174	34658	33214	35986	32367	
1835	0	32148	34374	32877	37501	32551	
1836	0	33749	34183	32358	39569	32905	
1837	0	35348	33959	31686	36724	33106	
1838	0	36194	33115	31539	33031	33005	
1839	0	35728	33113	31447	35320	32877	
1840	0	34592	33943	31239	40876	32797	
1841	0	33371	34498	31763	43811	32933	
1842	0	32315	34656	32472	41263	32894	
1843	0	31682	33793	32811	35645	32670	
1844	0	32208	32064	32775	30961	32902	
1845	0	32826	31533	32326	29115	32761	
1846	0	33601	32683	32297	29826	32843	
1847	0	34182	33271	32967	32512	32667	
1848	0	33808	33649	33272	30679	32677	
1849	0	32352	35240	33555	27135	32696	
1850	0	30897	37795	33574	24066	32672	
1851	0	29940	37550	33581	26162	32907	
1852	0	29536	34379	33499	29925	33166	
1853	0	30068	29647	33477	29985	32902	
1854	0	30936	26715	33372	29308	32384	
1855	0	31993	28272	33133	31797	32524	
1856	0	32741	31339	32786	37177	32539	
1857	0	33021	33599	32629	36395	33069	
1858	0	32348	35812	32440	36264	33347	
1859	0	31689	37170	32471	34475	33589	
1860	0	31937	37177	32637	33173	32986	
1861	0	33175	36897	33005	29568	32854	
1862	0	34264	33550	32933	29398	32189	
1863	0	35151	28964	32750	29880	32400	
1864	0	35757	24718	33075	31964	32903	
1865	0	35254	22051	33504	33799	32689	
1866	0	34608	22777	33409	36860	32401	
1867	0	34168	26413	31785	37383	32851	
1868	0	33366	29703	31333	38169	33234	
1869	0	32930	31725	31947	33725	33517	
1870	0	32716	33479	31186	30565	33449	
1871	0	32452	37400	31596	28032	33208	
1872	0	32176	40835	32050	29211	32533	
1873	0	32184	42075	32635	37818	31430	
1874	0	32473	42128	33275	45209	32007	
1875	0	32441	38855	33362	45049	32911	
1876	0	32132	35490	33346	34344	34153	
1877	0	32384	32673	33147	24431	33918	
1878	0	32839	29384	33095	23907	33096	
1879	0	32896	26450	33135	26461	33573	
1880	0	32393	24871	33250	27015	33407	
1881	0	31568	24484	33280	26523	32192	
1882	0	31137	27089	33265	29191	32506	
1883	0	31168	29245	33251	35223	32615	
1884	0	31890	31542	33083	37643	32079	
1885	0	32670	35302	33073	35437	31751	
1886	0	33340	40257	33170	39292	32436	
1887	0	33614	45264	33177	42780	33041	
1888	0	33730	47151	33062	41807	33335	
1889	0	33560	46224	33017	34215	33557	
1890	0	32770	43864	33018	24839	33528	
1891	0	32034	40580	32916	18014	33314	
1892	0	31554	36147	32873	16741	33124	
1893	0	31496	34066	32845	22398	32557	
1894	0	31281	31296	32605	34092	32341	
1895	0	31256	26258	32512	48360	32609	
1896	0	32160	22240	32421	53319	32986	
1897	0	33690	20028	32263	46087	32482	
1898	0	34924	17435	32020	33568	31260	
1899	0	35308	14990	31996	24548	31697	
1900	0	35263	16861	31972	20017	32715	
1901	0	35052	23507	32174	22214	32959	
1902	0	33980	29698	32325	31292	32956	
1903	0	33124	34128	32464	40384	33300	
1904	0	32433	37524	32765	41254	33107	
1905	0	32604	39914	32840	35113	33040	
1906	0	32481	40311	32775	29944	33063	
1907	0	32551	40721	32735	32131	33674	
1908	0	32565	40274	32702	33305	33965	
1909	0	32678	42064	32850	31208	33799	
1910	0	32187	41563	32957	27337	33131	
1911	0	31496	36497	33093	27609	31833	
1912	0	30963	30183	33232	28362	31661	
1913	0	31369	26418	33182	31357	31423	
1914	0	31981	27026	33171	33575	31687	
1915	0	32922	29737	33202	33602	32466	
1916	0	33336	31609	33118	34550	32899	
1917	0	33741	30066	33091	37609	33263	
1918	0	34214	27526	32976	37592	33970	
1919	0	34566	27561	32792	34787	33959	
1920	0	34536	29848	32157	31303	33730	
1921	0	34568	31661	32337	25498	33432	
1922	0	33810	31609	32751	23775	33458	
1923	0	32472	31547	32747	30228	33415	
1924	0	31808	32704	32788	36780	32493	
1925	0	31448	34031	32491	39542	31361	
1926	0	31037	35988	32571	35547	31637	
1927	0	31186	39100	31961	35599	32547	
1928	0	31062	39964	30957	39800	32253	
1929	0	31104	40483	31943	39381	32133	
1930	0	32096	39396	33127	36635	32289	
1931	0	33365	35948	32711	32996	32654	
1932	0	33867	32999	31928	31291	33187	
1933	0	33728	31114	31559	30857	33570	
1934	0	32623	30349	31722	25788	33873	
1935	0	31896	29746	32673	24125	33521	
1936	0	31831	30426	33061	28276	33315	
1937	0	32108	32263	33439	33730	33243	
1938	0	32817	33150	33746	33990	32623	
1939	0	33015	33744	33778	30126	32679	
1940	0	32647	34247	33619	28603	32768	
1941	0	32484	33045	33518	31239	32368	
1942	0	32442	31484	33337	38036	31785	
1943	0	31790	31460	33336	44941	31922	
1944	0	31040	33270	33312	40775	32599	
1945	0	30741	34601	33188	31808	32195	
1946	0	31512	34348	33183	20342	32592	
1947	0	33163	33642	33096	10182	32327	
1948	0	35000	33897	32991	12095	32147	
1949	0	35524	34086	32902	23957	32680	
1950	0	35416	34763	32548	41479	33103	
1951	0	35300	34908	32205	56650	32057	
1952	0	35432	33872	31369	59269	32608	
1953	0	35610	31894	30930	53351	33635	
1954	0	35172	29992	31506	45307	33607	
1955	0	34365	26521	32226	35688	33211	
1956	0	33787	24334	32706	27934	33144	
1957	0	33266	24751	32685	25904	32787	
1958	0	32932	25885	32675	26178	32741	
1959	0	32868	26457	32775	26937	33109	
1960	0	32346	27047	32795	26577	32466	
1961	0	31869	28160	32960	27365	32643	
1962	0	31312	30709	33055	28018	32615	
1963	0	31092	34199	33150	30214	32620	
1964	0	31445	35791	33218	29386	33200	
1965	0	31880	36564	33216	23580	33328	
1966	0	32091	36386	33222	23939	32725	
1967	0	31900	37738	33114	26712	32687	
1968	0	31616	38711	33088	33605	32576	
1969	0	31346	38952	33028	41408	33176	
1970	0	30916	38795	32947	49211	33355	
1971	0	30558	37549	32989	44505	33050	
1972	0	30249	35679	32932	35134	31928	
1973	0	29850	32005	32967	27922	31705	
1974	0	30272	28750	32868	27540	32247	
1975	0	30945	28010	32827	31021	32495	
1976	0	32263	30443	32603	34724	33084	
1977	0	34634	33395	32447	33723	33195	
1978	0	36907	34197	32452	29677	33346	
1979	0	37929	33847	32429	28758	33605	
1980	0	37248	32743	32553	33885	33086	
1981	0	35438	31847	32668	36103	32871	
1982	0	33452	31699	32704	35281	33071	
1983	0	31886	30522	32833	30334	33144	
1984	0	30993	30035	32820	28397	33154	
1985	0	30855	30683	32481	29629	32368	
1986	0	30942	31991	32767	33071	32674	
1987	0	30969	30675	33037	35920	32659	
1988	0	31490	29767	33563	38831	33143	
1989	0	32273	30947	33929	37247	33079	
1990	0	32576	31922	34073	32600	32926	
1991	0	32612	32589	33404	25160	32650	
1992	0	32745	32118	32547	21106	32921	
1993	0	33420	32915	32209	25405	33095	
1994	0	33888	33588	32061	30661	32608	
1995	0	33672	34082	30957	39112	32487	
1996	0	33272	36825	29919	43919	32397	
1997	0	33035	37059	29987	44165	32171	
1998	0	33247	35098	30535	39186	32307	
1999	0	33788	33566	31731	32514	32583	
2000	0	34178	32295	33034	30117	32935	
2001	0	33879	30617	32947	31403	33263	
2002	0	33454	28434	32705	32903	33247	
2003	0	32965	28315	33126	35638	33121	
2004	0	32291	28671	33248	35743	33327	
2005	0	32004	28987	33219	32489	33131	
2006	0	32019	30283	33266	29446	32967	
2007	0	32024	32664	33321	27294	32645	
2008	0	31778	36841	33310	21665	32176	
2009	0	31608	40792	33446	18682	32290	
2010	0	31760	44388	33586	23664	32305	
2011	0	32012	45888	33708	32624	32939	
2012	0	32690	46855	33648	39595	33025	
2013	0	33442	45801	33320	43554	32670	
2014	0	33675	40762	32899	42283	32872	
2015	0	33314	34564	32300	33660	33124	
2016	0	32642	28859	32434	28350	32768	
2017	0	31894	24908	32991	24902	33490	
2018	0	31809	20960	33131	30999	33282	
2019	0	31540	17984	33082	43335	32192	
2020	0	31456	16314	32982	48939	32091	
2021	0	31860	18406	32775	44218	32696	
2022	0	32676	22096	32628	35215	33766	
2023	0	33482	27222	32684	31074	33743	
2024	0	34311	33567	32588	31348	33140	
2025	0	35041	39403	32659	30950	33015	
2026	0	35146	41783	32775	31341	32775	
2027	0	34759	40071	32851	29104	32921	
2028	0	34092	37475	32888	23781	32681	
2029	0	33922	35905	32855	22189	32381	
2030	0	33730	35271	32914	26393	32403	
2031	0	33256	35320	32856	29348	32852	
2032	0	32327	34575	32832	33007	32992	
2033	0	31570	32590	32967	30389	32702	
2034	0	31008	32277	32972	24015	32303	
2035	0	30709	34033	32876	24523	32552	
2036	0	30237	33813	32939	25633	32539	
2037	0	29929	31489	33042	31924	32330	
2038	0	29896	29834	32785	38469	32749	
2039	0	30834	30914	32543	50181	32946	
2040	0	33272	33095	32486	59684	32601	
2041	0	36054	35130	32592	59218	32435	
2042	0	37131	34404	32861	56059	32800	
2043	0	36544	32060	32634	41764	33176	
2044	0	35484	28604	32596	24322	33196	
2045	0	33477	26244	32579	15578	33029	
2046	0	32344	27912	32812	10012	32571	
2047	0	31928	28502	32583	10595	31859	
2048	0	32090	24773	32571	18312	32594	
2049	0	32728	23604	32306	27877	33360	
2050	0	33832	24789	32317	37152	34192	
2051	0	34416	25579	32557	40315	34695	
2052	0	33970	28451	32818	37675	34395	
2053	0	33076	31149	33031	33094	33878	
2054	0	32384	34622	33149	32674	32688	
2055	0	32000	38467	32914	33778	30477	
2056	0	31907	40351	32400	36338	28469	
2057	0	31894	40819	32293	35236	29871	
2058	0	31751	42681	32305	31005	31431	
2059	0	31646	43911	32645	30182	32723	
2060	0	31965	44103	32817	31255	33731	
2061	0	32469	41691	33121	33474	34270	
2062	0	32731	37103	32815	35323	34180	
2063	0	32829	32177	32327	34150	33426	
2064	0	32753	28318	32445	33538	33647	
2065	0	32669	27267	32853	33763	33517	
2066	0	32564	28167	32994	33781	33127	
2067	0	32297	29127	33052	33213	32984	
2068	0	32513	28558	33075	30062	32578	
2069	0	32662	25890	33023	27458	32889	
2070	0	32495	24574	33117	26966	33213	
2071	0	32068	25403	32955	26945	32761	
2072	0	32441	28783	32775	30896	32873	
2073	0	32464	33879	32707	34242	32442	
2074	0	32341	37789	33013	37691	32753	
2075	0	32228	40854	33228	35210	32334	
2076	0	32442	43172	33243	30592	32667	
2077	0	32129	44637	33589	30281	33234	
2078	0	31589	43686	33474	36051	33769	
2079	0	31440	39774	33232	40077	33120	
2080	0	31727	35584	32721	40150	32327	
2081	0	32737	32995	32405	35899	32848	
2082	0	33769	30651	32301	29628	32898	
2083	0	33961	30191	32382	24070	32794	
2084	0	33778	31680	31627	24638	32601	
2085	0	33479	34943	31424	31603	33363	
2086	0	33308	37202	31267	39564	33042	
2087	0	33192	38112	31884	44770	32334	
2088	0	33472	36696	32611	43015	32342	
2089	0	33794	31740	32533	33876	32742	
2090	0	33758	25317	32812	28789	32850	
2091	0	33274	19013	33092	27748	33163	
2092	0	32664	15384	33287	30445	33236	
2093	0	32221	17509	33351	32947	33026	
2094	0	32224	23272	33467	32103	32640	
2095	0	32325	28027	33622	28480	32461	
2096	0	32798	31971	33575	28143	32711	
2097	0	32608	34883	33415	30800	32807	
2098	0	32199	35769	33414	33551	33007	
2099	0	32288	36871	33317	33175	33037	
2100	0	32053	40034	32559	30580	32952	
2101	0	31848	41475	31926	28050	32449	
2102	0	32315	40935	31826	29791	32583	
2103	0	33564	38338	32263	35893	32142	
2104	0	34760	34170	32745	43928	32340	
2105	0	35564	31154	32978	49293	32775	
2106	0	35512	29288	33012	44487	33320	
2107	0	34811	28048	32829	35633	33086	
2108	0	34208	27735	32707	28247	32983	
2109	0	33392	27218	32782	22592	33218	
2110	0	32415	27314	32793	20284	33091	
2111	0	31229	26792	32803	23096	32792	
2112	0	30727	28354	32427	27953	32852	
2113	0	31092	34243	32628	31843	32488	
2114	0	31837	39346	32972	35254	32732	
2115	0	31960	40967	33035	36345	33075	
2116	0	32146	40875	32989	33538	33126	
2117	0	32263	40783	32928	30106	32796	
2118	0	32715	39105	32921	29600	32854	
2119	0	32833	36317	32899	24782	32882	
2120	0	32578	34311	32957	27197	32757	
2121	0	32168	33085	32836	34400	32703	
2122	0	32125	31791	32879	38873	32683	
2123	0	32073	29917	32833	40997	32706	
2124	0	32327	27159	32880	42962	32859	
2125	0	32809	24675	32946	43129	33140	
2126	0	33816	23859	32852	41755	33264	
2127	0	34498	24371	32770	33712	32878	
2128	0	34182	26118	32653	27271	32589	
2129	0	33245	28505	32724	28502	32608	
2130	0	32536	30991	32672	30890	32717	
2131	0	32256	33672	32639	30087	33010	
2132	0	32300	36717	32560	28511	33243	
2133	0	32688	39607	32707	28295	33170	
2134	0	32902	41490	32606	30959	33154	
2135	0	32934	44458	32725	32196	33211	
2136	0	32912	45676	32830	35673	32980	
2137	0	32795	42491	32839	36791	32103	
2138	0	32712	33960	32743	34921	31848	
2139	0	32468	25063	32608	30168	32462	
2140	0	31922	20157	32594	23152	32755	
2141	0	31969	20822	32706	15928	32863	
2142	0	32658	25402	32775	17085	32805	
2143	0	32711	30288	32910	26111	32938	
2144	0	32420	34370	32969	36720	32931	
2145	0	32628	35655	33121	44324	32801	
2146	0	32642	35496	32833	48248	32710	
2147	0	31600	33808	32221	52727	32642	
2148	0	31033	31365	32358	51527	32848	
2149	0	31368	29770	33005	43379	33065	
2150	0	32285	31004	33095	34630	32958	
2151	0	33799	32313	33093	30317	32941	
2152	0	34973	34595	32626	29873	32950	
2153	0	35750	36303	32073	29100	33343	
2154	0	36274	36041	31827	27247	33613	
2155	0	35568	33631	32148	26464	33227	
2156	0	34451	29540	32615	26733	32175	
2157	0	32976	25765	32391	26530	32566	
2158	0	31963	25477	32523	28017	32245	
2159	0	31680	28377	31339	28771	32959	
2160	0	31776	31743	31045	27762	33251	
2161	0	32432	33698	32477	28110	32741	
2162	0	32740	34701	33309	29598	32760	
2163	0	32352	36285	33237	30765	33262	
2164	0	31799	37581	32805	32307	33065	
2165	0	31716	38049	32531	34716	32754	
2166	0	31780	38192	32999	38160	32604	
2167	0	32032	37887	33223	38319	32583	
2168	0	32628	36663	33377	35547	32679	
2169	0	32640	35399	33270	31285	32805	
2170	0	32125	34047	33197	27609	32758	
2171	0	31977	33629	33324	24331	32614	
2172	0	32225	35609	33467	27157	32701	
2173	0	32416	36142	33330	34384	32602	
2174	0	32568	34451	33362	41732	32730	
2175	0	32736	32293	33207	46047	32964	
2176	0	32967	29583	33089	43045	32957	
2177	0	33238	29415	32731	36091	32879	
2178	0	32912	31157	32430	29816	32543	
2179	0	32355	31990	32077	28299	32770	
2180	0	32157	30627	32226	33985	32996	
2181	0	32652	27738	32216	38731	33103	
2182	0	33005	25334	31894	38172	33025	
2183	0	33608	26503	32045	34682	32883	
2184	0	33836	29237	32541	30512	32263	
2185	0	33902	31773	32604	28670	32647	
2186	0	33147	33241	32771	30343	32895	
2187	0	32758	32775	32881	30659	32775	
2188	0	33009	32198	33004	33138	32923	
2189	0	33200	32603	32967	32352	32980	
2190	0	33115	33618	33143	30611	32889	
2191	0	32568	34117	33267	29951	32935	
2192	0	31997	32283	32467	30531	33023	
2193	0	32221	31262	32032	31405	32673	
2194	0	32680	30491	32480	30365	32499	
2195	0	32824	30592	32815	29189	32615	
2196	0	32720	32534	32935	27916	32372	
2197	0	32451	34716	32914	30236	32511	
2198	0	32768	38210	32894	34951	32467	
2199	0	33208	42253	32829	35474	33006	
2200	0	33208	41645	32729	31125	33034	
2201	0	32768	36248	32553	26479	32948	
2202	0	32816	30895	32609	27607	32812	
2203	0	32587	28838	32717	32831	32995	
2204	0	32668	30558	32925	37143	32883	
2205	0	32896	33489	32872	41031	32670	
2206	0	32902	35230	32831	42774	33005	
2207	0	32736	34904	32873	35586	32884	
2208	0	32515	35270	33005	27701	32932	
2209	0	32792	34783	33053	28494	32918	
2210	0	32964	31089	33025	33296	33026	
2211	0	32808	26021	32967	38760	32801	
2212	0	32936	22257	32706	39568	31842	
2213	0	32924	22281	32399	38297	32402	
2214	0	32424	25235	32485	34659	32925	
2215	0	32132	30245	32646	27433	32688	
2216	0	32083	36265	32793	26967	32978	
2217	0	31952	40634	32694	36530	32975	
2218	0	31928	39789	32397	37455	32677	
2219	0	32176	35544	32626	29024	32797	
2220	0	32960	32000	32893	22340	32922	
2221	0	34104	31360	33098	17664	33054	
2222	0	34621	31395	33270	19574	33273	
2223	0	33960	32688	33315	31090	32952	
2224	0	32904	34659	33390	41678	31736	
2225	0	32071	34762	33372	50768	31905	
2226	0	31576	32962	33331	49747	32231	
2227	0	31382	31667	32888	38022	32711	
2228	0	31672	30932	31806	23455	33122	
2229	0	32000	28903	31721	23547	33357	
2230	0	32546	28130	32243	29725	33507	
2231	0	32904	29845	31945	38348	33449	
2232	0	33553	33325	31117	40135	33669	
2233	0	34042	36943	31720	31373	33934	
2234	0	34432	38005	32557	26798	34073	
2235	0	35090	38343	32755	24536	33829	
2236	0	35387	38237	32410	27669	32359	
2237	0	34777	36682	32288	41502	29997	
2238	0	33757	34217	32667	51960	29720	
2239	0	32849	31297	33080	46541	31326	
2240	0	32088	28133	33278	34184	32208	
2241	0	31405	26310	33287	25854	32618	
2242	0	31096	26041	33219	23719	33336	
2243	0	31158	26043	33351	25647	33506	
2244	0	30891	26955	33127	27083	33403	
2245	0	30889	30203	32787	31431	33735	
2246	0	31253	34851	32991	34023	33686	
2247	0	32598	37485	32911	30467	33762	
2248	0	33799	38407	32758	31569	31815	
2249	0	34490	37333	32730	34301	32992	
2250	0	35133	35816	32857	36871	32795	
2251	0	34717	34103	32891	36908	31551	
2252	0	33484	34798	33075	32251	32967	
2253	0	32733	35551	33190	31655	33469	
2254	0	31815	36428	33339	32436	33328	
2255	0	30930	36397	33511	33678	33431	
2256	0	30462	33129	33316	31437	33389	
2257	0	30358	27712	32872	27280	32984	
2258	0	30674	24097	31885	23995	32873	
2259	0	31302	23750	31398	22549	32649	
2260	0	32300	25151	32248	26147	32809	
2261	0	34168	27774	32146	34414	33031	
2262	0	35688	31666	32141	37736	32948	
2263	0	35674	33989	32697	37979	32947	
2264	0	34930	36845	32996	34631	32985	
2265	0	34432	39651	33182	34982	32816	
2266	0	33920	42919	32918	33279	33024	
2267	0	33256	44430	32813	37077	32910	
2268	0	32408	44201	32559	40845	32977	
2269	0	31763	42669	32393	40354	32866	
2270	0	31038	40043	32206	38147	32866	
2271	0	30936	38265	32736	33451	32626	
2272	0	31652	34541	33146	27396	32669	
2273	0	32064	30215	33299	27051	32888	
2274	0	31292	26562	32805	30972	33008	
2275	0	31509	22782	32633	35133	33407	
2276	0	32748	18848	32638	35088	33984	
2277	0	33732	16562	33029	30628	33762	
2278	0	34409	17771	33074	29586	33435	
2279	0	34962	20735	33059	30885	33081	
2280	0	35076	24021	33004	30055	31514	
2281	0	34527	26715	32986	25629	31569	
2282	0	33961	29778	32688	20928	32095	
2283	0	33616	34362	32429	17511	31276	
2284	0	32966	39337	32263	27776	31648	
2285	0	32189	43719	33113	42112	31992	
2286	0	31320	46587	33272	50163	32376	
2287	0	30598	46111	32839	53810	32803	
2288	0	30360	42257	32414	47245	33481	
2289	0	30482	35865	32701	35032	33742	
2290	0	30936	32793	33147	25844	33836	
2291	0	31751	29351	33163	24140	33154	
2292	0	32720	27373	32775	28750	32797	
2293	0	34232	29307	31990	34964	32849	
2294	0	34448	32088	31985	32539	33764	
2295	0	34380	32691	32551	26695	33273	
2296	0	34484	29959	33039	26798	31632	
2297	0	34242	27298	33110	30281	31639	
2298	0	34012	26971	32961	33479	32506	
2299	0	33567	29961	32886	33336	32489	
2300	0	32760	33360	32775	31211	32493	
2301	0	32018	37478	33021	32888	32935	
2302	0	31064	40706	33125	38174	32797	
2303	0	30684	42365	33010	43632	33088	
2304	0	30663	40499	32966	43602	33133	
2305	0	31270	36132	33016	35112	33210	
2306	0	32040	31170	32993	27140	33488	
2307	0	33035	27328	32529	26436	33825	
2308	0	33611	25806	32726	25989	32896	
2309	0	33785	27965	32879	22785	32967	
2310	0	33081	29887	33275	25541	33319	
2311	0	32876	30354	33459	34511	32417	
2312	0	32989	29383	33458	40455	33023	
2313	0	32912	29702	32937	39747	33129	
2314	0	32888	31654	32295	36249	33093	
2315	0	32893	34880	31989	38339	32537	
2316	0	32939	36794	31410	41082	31951	
2317	0	32813	35238	31493	37515	31463	
2318	0	32380	31604	31618	32011	31572	
2319	0	31913	29757	31111	28276	32636	
2320	0	32184	31101	32399	29703	33159	
2321	0	32765	33831	32933	31730	32910	
2322	0	33965	35698	33134	32767	33287	
2323	0	35011	35656	33226	28326	32999	
2324	0	35270	34641	33174	24754	32086	
2325	0	35147	34295	33095	26195	32623	
2326	0	33778	34331	33338	27047	32411	
2327	0	32715	36323	33559	29179	32678	
2328	0	31588	37795	33406	30003	33287	
2329	0	30777	38167	32905	29254	33218	
2330	0	30677	36920	32506	28005	32676	
2331	0	30736	34406	32688	26166	32675	
2332	0	32014	32147	33123	32320	33107	
2333	0	33287	29694	33311	38965	33683	
2334	0	33707	28919	33033	44088	33577	
2335	0	34103	27513	32315	44086	32862	
2336	0	34134	26552	32202	43816	32787	
2337	0	33813	28118	32803	45311	32951	
2338	0	33388	30962	32997	42403	32254	
2339	0	32339	32418	33110	37607	31311	
2340	0	31227	30912	33168	30949	32507	
2341	0	30798	28120	32707	24071	33012	
2342	0	31049	26501	32820	22494	33399	
2343	0	31703	26361	32775	25178	33632	
2344	0	32917	28039	32683	26193	33629	
2345	0	33596	30108	32592	27901	33143	
2346	0	33692	32985	32367	28611	31943	
2347	0	33501	35252	32461	27533	32409	
2348	0	33490	38240	32363	32448	33134	
2349	0	33851	40765	32621	38303	33428	
2350	0	34038	41957	32504	42774	32498	
2351	0	34137	41479	32720	42767	31767	
2352	0	33393	38778	33015	37867	32950	
2353	0	31792	35776	33095	32395	33463	
2354	0	31133	32863	33218	29169	33522	
2355	0	30854	30288	33337	27701	33223	
2356	0	31048	28039	33385	25736	32297	
2357	0	31494	28010	33247	26943	31017	
2358	0	32058	28730	33007	28985	31303	
2359	0	32975	30492	32817	29633	32367	
2360	0	33790	31331	32647	31211	33015	
2361	0	34515	30549	32522	32549	32805	
2362	0	35014	30361	31987	31513	33285	
2363	0	34620	30163	32213	27603	33144	
2364	0	33922	30927	32329	29703	33095	
2365	0	32884	32610	31842	38850	33032	
2366	0	32104	33873	32211	46064	32436	
2367	0	32030	34537	32664	40779	33095	
2368	0	31768	35779	33039	32653	32940	
2369	0	31767	37691	33285	28524	32845	
2370	0	31776	38781	33442	31545	32506	
2371	0	31816	38919	33459	36743	32879	
2372	0	31542	38481	33739	37659	33060	
2373	0	31428	38800	33759	36003	33179	
2374	0	32284	37308	33195	33643	33257	
2375	0	33002	36992	31890	33033	33346	
2376	0	33058	36888	31120	37495	33095	
2377	0	33159	35817	31785	41805	32513	
2378	0	33333	34806	32481	39151	32767	
2379	0	33512	31141	32769	32283	32531	
2380	0	33051	25077	32804	24409	32216	
2381	0	32621	19426	32792	20912	32452	
2382	0	32337	17252	33129	23762	33469	
2383	0	32211	19251	32921	29188	33873	
2384	0	32192	22938	32661	30727	33479	
2385	0	32229	26323	32870	33637	33170	
2386	0	32647	28509	31608	35289	32227	
2387	0	33041	30639	31303	34706	32345	
2388	0	33320	32397	32051	33039	33442	
2389	0	33950	34791	32706	33506	34104	
2390	0	34587	37443	32987	32967	33463	
2391	0	34736	39513	33095	31190	33698	
2392	0	34104	41697	33267	28812	33040	
2393	0	33296	44630	33414	29703	31737	
2394	0	32569	44140	33158	31064	30815	
2395	0	31994	40891	32775	31632	31315	
2396	0	32088	34997	32775	32409	32186	
2397	0	32159	27771	32860	36320	33344	
2398	0	32352	22160	32936	38690	34659	
2399	0	32346	20719	32797	39311	34106	
2400	0	32050	21511	32775	34293	32469	
2401	0	32370	23461	32673	29551	31105	
2402	0	33250	28079	32733	28434	29996	
2403	0	33904	34023	32487	32120	31226	
2404	0	34010	38962	32090	34280	32251	
2405	0	33664	41479	32272	35995	32287	
2406	0	33057	41680	32513	37431	31876	
2407	0	32289	40263	32660	36379	32869	
2408	0	32221	38642	32809	30451	33741	
2409	0	32540	35728	32821	26884	34228	
2410	0	32421	31215	33038	26907	34467	
2411	0	32331	25369	33025	31394	34633	
2412	0	32037	21764	33299	36315	34226	
2413	0	31714	22363	33318	37456	33383	
2414	0	31459	25921	33156	36783	32381	
2415	0	31360	32525	32986	35605	32188	
2416	0	31714	37131	32440	33033	32767	
2417	0	31939	40304	32325	31565	33223	
2418	0	32886	42107	32011	31632	32680	
2419	0	34210	42082	32021	31923	32425	
2420	0	34880	40927	32460	32967	32407	
2421	0	35128	37522	32839	32937	33087	
2422	0	35220	34010	33051	32590	33677	
2423	0	34362	33339	33464	29731	34199	
2424	0	32880	33693	33565	28151	34119	
2425	0	31908	33165	33487	28713	33222	
2426	0	31396	31682	33727	30899	32295	
2427	0	30948	29339	33782	33565	31895	
2428	0	31062	28255	33102	33488	32967	
2429	0	31272	28235	31419	30349	33019	
2430	0	31204	30459	30773	28582	32935	
2431	0	31590	33115	30674	29889	32949	
2432	0	32323	31834	31123	30799	33086	
2433	0	33848	28772	32208	33552	32791	
2434	0	34978	25639	32775	37210	32768	
2435	0	35288	23748	33171	37936	32703	
2436	0	34938	22191	33543	34946	32851	
2437	0	33965	23831	33815	29951	33087	
2438	0	33873	28029	32937	31279	33143	
2439	0	33980	32102	32770	32226	32883	
2440	0	33412	35439	33522	30672	32180	
2441	0	32832	37735	33824	30375	32546	
2442	0	32073	39517	33663	31504	32879	
2443	0	30846	40965	33017	32317	33024	
2444	0	30314	41137	31427	33519	32784	
2445	0	30173	39977	30936	38919	32473	
2446	0	30246	39597	31641	43229	32573	
2447	0	30768	39415	32165	37769	32843	
2448	0	31544	38427	32307	30053	32988	
2449	0	32490	36794	32649	25095	32912	
2450	0	33670	35593	32853	31093	32598	
2451	0	34418	34755	33107	41607	32626	
2452	0	35072	35017	33053	49414	32733	
2453	0	34968	33063	33080	44488	32996	
2454	0	34258	29493	33095	33714	33077	
2455	0	33384	25004	33170	24712	33353	
2456	0	32720	21112	33174	20665	33570	
2457	0	32902	20279	33170	23606	32073	
2458	0	33074	22681	32935	29061	31692	
2459	0	33186	26232	33187	32895	32263	
2460	0	33264	29100	33090	32165	32717	
2461	0	32342	34418	33048	26132	32927	
2462	0	31003	41571	33038	20818	32276	
2463	0	30232	45893	32942	24985	32388	
2464	0	29972	46332	32977	37138	32745	
2465	0	30436	43655	32936	48082	32658	
2466	0	31896	37606	32833	48933	32680	
2467	0	34018	31409	32860	39162	32986	
2468	0	35776	27825	32912	27858	33283	
2469	0	36823	26137	32707	24228	33127	
2470	0	36186	24049	32807	27453	32855	
2471	0	34462	21841	33014	34018	32939	
2472	0	32549	21860	33129	36198	32855	
2473	0	31185	22510	32888	35335	32847	
2474	0	30576	24530	32727	31555	32845	
2475	0	30106	26571	32262	33355	33353	
2476	0	30310	29748	32000	39404	34010	
2477	0	31815	33567	31706	43686	33561	
2478	0	33624	35291	31675	40215	32981	
2479	0	34848	37080	32088	31930	33088	
2480	0	35446	41168	32562	24808	32320	
2481	0	35015	45329	32784	21829	31380	
2482	0	33824	47994	32910	23777	31293	
2483	0	31964	48775	32963	28421	32882	
2484	0	30472	46563	33095	30727	33037	
2485	0	30294	41232	33200	28186	33152	
2486	0	31138	34362	33252	27278	32429	
2487	0	32029	26208	33368	31452	32152	
2488	0	33378	20260	33426	36018	32056	
2489	0	34108	17827	33473	38087	31239	
2490	0	33578	19549	32943	38022	32525	
2491	0	33340	20536	32245	36461	32988	
2492	0	32866	21447	31859	31223	33187	
2493	0	33272	25332	32453	28355	33073	
2494	0	33764	30934	32159	29584	33036	
2495	0	34728	35403	31619	33376	33154	
2496	0	34950	38829	31640	40896	32832	
2497	0	34776	41110	32377	42357	32642	
2498	0	33644	39739	33130	40473	32094	
2499	0	32503	37859	33551	35015	32817	
2500	0	31707	37146	33769	28116	33583	
2501	0	31288	38148	33691	24462	34146	
2502	0	30660	38629	33071	25005	33607	
2503	0	30328	37091	31781	30623	33366	
2504	0	30176	35195	31837	35805	32959	
2505	0	30397	31687	32458	33897	33053	
2506	0	30857	28440	32757	27905	33018	
2507	0	31552	25750	33032	27907	32655	
2508	0	32470	26432	32909	29299	32324	
2509	0	33816	29573	32470	35936	32400	
2510	0	34880	32204	32936	42470	32824	
2511	0	35221	33231	33287	45106	33518	
2512	0	34544	33101	33655	41543	33287	
2513	0	33846	32177	33930	34671	34379	
2514	0	33472	31477	33749	25781	33544	
2515	0	33104	33646	33068	20674	31788	
2516	0	32360	36914	32239	21607	31239	
2517	0	31684	37505	31949	27123	31842	
2518	0	31455	34793	31779	27015	32135	
2519	0	31497	31559	31579	30153	32433	
2520	0	31640	30101	31645	32973	32658	
2521	0	31843	30304	31738	31887	32614	
2522	0	32342	32038	31983	28925	33552	
2523	0	32696	32463	32382	27939	33344	
2524	0	33079	32244	33034	36490	32933	
2525	0	34053	30829	33243	43840	33147	
2526	0	34920	30287	33446	40664	33374	
2527	0	34752	32450	33511	33504	32821	
2528	0	33992	34787	33412	33609	32093	
2529	0	33092	37275	33248	35628	32496	
2530	0	32004	40199	33076	40140	33366	
2531	0	30818	40515	33197	42112	33879	
2532	0	30270	39382	33235	40697	33793	
2533	0	30281	36807	33250	39751	33737	
2534	0	30804	32773	33009	35655	33140	
2535	0	31504	30310	32395	32008	32367	
2536	0	33206	29036	32071	31780	31686	
2537	0	34564	27598	32337	29611	30416	
2538	0	35021	25129	32502	25710	30952	
2539	0	34637	24976	32743	26346	32041	
2540	0	34752	27335	32964	29463	32817	
2541	0	34724	30130	33117	33547	32775	
2542	0	34290	31737	32898	33303	32809	
2543	0	33637	31569	32704	30008	32751	
2544	0	32860	31303	32632	25605	32405	
2545	0	32569	30087	32386	21618	32651	
2546	0	33141	29025	32280	22357	33013	
2547	0	33930	28999	32479	27621	33439	
2548	0	34556	30859	32672	31055	33379	
2549	0	34630	34452	32748	31175	32993	
2550	0	33314	39322	32818	36656	33014	
2551	0	31706	42840	32964	46522	32807	
2552	0	30968	43035	33033	51058	32681	
2553	0	30016	40987	33063	44129	34058	
2554	0	29346	38250	32856	33476	33255	
2555	0	29426	35834	32761	26129	33275	
2556	0	30048	34680	32707	20673	33256	
2557	0	31252	34535	32675	19495	32999	
2558	0	33236	31968	32680	25230	32750	
2559	0	34688	29214	32832	37751	32775	
2560	0	34808	26885	33047	46554	32934	
2561	0	34631	26428	32886	47913	33277	
2562	0	34194	27571	32757	42503	33231	
2563	0	33744	28785	32775	36403	32421	
2564	0	33128	27212	32855	31104	31797	
2565	0	32649	24365	32845	26268	32472	
2566	0	31818	22854	32879	22700	32853	
2567	0	31154	24535	32930	25015	32875	
2568	0	30818	27927	32851	28679	32927	
2569	0	31149	32520	32775	36150	32898	
2570	0	32018	37522	32939	38107	33067	
2571	0	32925	42146	33084	34990	32523	
2572	0	34010	44281	32892	29660	32419	
2573	0	34967	42661	32214	28262	32759	
2574	0	34566	39773	31598	31391	33829	
2575	0	34149	35863	31536	33529	34214	
2576	0	33466	33453	31952	34039	33470	
2577	0	33227	34057	32763	32623	32410	
2578	0	33378	34499	33284	30023	32711	
2579	0	32861	33039	33477	29779	33619	
2580	0	32141	32017	33275	27268	32578	
2581	0	31876	31899	33522	26499	30774	
2582	0	31625	31169	33687	27283	31271	
2583	0	31131	29775	33634	31781	32067	
2584	0	30434	28176	33321	39724	32589	
2585	0	30184	27795	32748	44310	32730	
2586	0	30633	28611	31438	41815	32775	
2587	0	31730	30594	30033	36551	32841	
2588	0	33049	32510	29926	31484	32894	
2589	0	34823	32540	31573	29484	33035	
2590	0	36011	33467	32402	27942	32950	
2591	0	35360	35200	33011	29750	32891	
2592	0	34406	38004	33286	34889	32787	
2593	0	34355	40005	33504	35704	32888	
2594	0	34141	39851	33496	30648	32827	
2595	0	33364	38641	33442	26409	32924	
2596	0	32944	35463	33275	25755	32963	
2597	0	32592	30756	33274	31952	32925	
2598	0	32171	27768	33328	41986	32356	
2599	0	31845	25313	33256	47377	32203	
2600	0	31776	23895	33109	47323	31801	
2601	0	32624	23807	32999	42631	32621	
2602	0	33304	24556	33019	34980	33611	
2603	0	32892	27265	32899	28281	34146	
2604	0	32301	30085	32802	23262	33253	
2605	0	32516	33944	32632	19995	32957	
2606	0	33254	37824	32583	20125	32548	
2607	0	33782	40336	32578	24472	32679	
2608	0	33940	42774	32718	28160	32413	
2609	0	34098	44031	32743	28733	33339	
2610	0	33564	42050	32809	30445	33553	
2611	0	32640	37949	32847	32503	33266	
2612	0	32080	34360	32775	35843	32589	
2613	0	32036	30109	32704	42794	32460	
2614	0	32020	25029	32813	48265	32500	
2615	0	31813	19271	32916	48000	32354	
2616	0	31460	17652	32930	38745	32684	
2617	0	31338	19236	32891	29115	33479	
2618	0	31261	24425	33033	31906	32724	
2619	0	31656	32180	33009	36907	32827	
2620	0	32568	39261	32820	38916	33733	
2621	0	33506	43899	32248	34351	32948	
2622	0	33548	46544	32172	26038	32304	
2623	0	33491	45484	32840	17666	32873	
2624	0	33433	41718	33088	14283	33040	
2625	0	32056	35760	32805	16740	32817	
2626	0	31305	29840	32640	30173	32616	
2627	0	31778	26098	32910	42496	32908	
2628	0	32327	24028	32919	46151	33240	
2629	0	32674	23136	33010	46703	33477	
2630	0	33986	25597	32902	39666	32257	
2631	0	34966	28387	32775	28920	32453	
2632	0	34758	28807	32585	22104	32833	
2633	0	33833	29274	32417	16064	32591	
2634	0	32909	31677	32434	21072	33041	
2635	0	32018	34657	32643	29126	32306	
2636	0	31825	37996	32917	37470	32717	
2637	0	31722	40709	33150	44777	32438	
2638	0	31324	42120	33179	52070	32248	
2639	0	31423	43933	33159	51186	32610	
2640	0	32370	45208	33091	40914	32936	
2641	0	33014	45057	33086	28984	32760	
2642	0	33506	42242	33280	21579	32787	
2643	0	33266	36547	33390	22983	32375	
2644	0	32932	29181	33188	28439	32168	
2645	0	32205	24733	32617	32704	32464	
2646	0	32232	23428	32427	34197	32844	
2647	0	32500	25010	32323	32458	32816	
2648	0	32648	26013	31681	29079	32946	
2649	0	32337	26795	31354	27445	33025	
2650	0	32764	26971	30961	27851	33502	
2651	0	33664	25974	31344	30563	33336	
2652	0	34244	25430	31399	33597	32835	
2653	0	34003	27969	31131	34060	32765	
2654	0	33465	31261	32272	32925	32583	
2655	0	32720	34951	32788	30885	32660	
2656	0	31541	39465	33192	27247	32710	
2657	0	30829	43906	33665	27645	32861	
2658	0	30712	46527	33982	30233	32955	
2659	0	31248	43410	34063	32827	32903	
2660	0	32648	35913	33868	37266	33106	
2661	0	34008	29175	33171	38998	33197	
2662	0	35078	25607	32312	39140	33406	
2663	0	34460	24302	31787	40005	32417	
2664	0	33962	24639	32045	44353	32505	
2665	0	34259	25692	32645	44983	32478	
2666	0	34680	28783	32919	42743	32033	
2667	0	34490	34483	33108	39689	32445	
2668	0	34157	38995	33363	38621	33969	
2669	0	33904	38241	33333	35897	33124	
2670	0	33317	32813	33407	29314	32263	
2671	0	33188	27877	33472	23106	33021	
2672	0	32704	25264	32696	21348	33728	
2673	0	32000	24919	32139	21008	33520	
2674	0	30839	27819	32760	18665	32242	
2675	0	29750	32238	33137	17393	31906	
2676	0	29606	35651	33177	19716	31481	
2677	0	29928	39440	33226	24616	32157	
2678	0	30745	44036	33074	32824	32493	
2679	0	31418	45245	32925	40055	32579	
2680	0	32170	42850	32745	41984	32831	
2681	0	33684	39767	32431	38919	32943	
2682	0	35325	34370	31912	35847	33050	
2683	0	35924	26720	31746	34013	33154	
2684	0	35432	20775	32254	36168	32850	
2685	0	34952	17628	32877	39431	32837	
2686	0	33875	20109	33121	36295	32873	
2687	0	32996	25429	33193	30757	32936	
2688	0	32196	30169	33304	27609	33135	
2689	0	31832	35154	33233	29773	33516	
2690	0	31616	38319	33224	35408	32882	
2691	0	31246	39337	33162	38791	32566	
2692	0	31264	37021	32827	38525	32491	
2693	0	31476	34265	32435	35719	32723	
2694	0	32468	33271	32613	34296	32935	
2695	0	33556	33072	33099	36295	33126	
2696	0	33633	33845	32984	38023	33959	
2697	0	33836	34659	32646	34918	33671	
2698	0	33558	34600	32216	32093	32991	
2699	0	32840	35051	31557	30510	32932	
2700	0	32320	35224	30725	26816	31525	
2701	0	31822	37812	31316	22230	31946	
2702	0	31328	39107	32037	19692	32534	
2703	0	31885	36521	32411	22512	32922	
2704	0	32626	31764	32880	34125	33126	
2705	0	33096	26752	33287	36610	32443	
2706	0	33867	26031	33343	36359	31226	
2707	0	34452	26485	33299	31712	31947	
2708	0	34269	28728	33330	30539	32811	
2709	0	33840	32690	33366	39485	33261	
2710	0	33722	36064	33381	45828	33607	
2711	0	32771	39143	33388	44954	33109	
2712	0	31792	41030	33442	40123	32950	
2713	0	30786	42823	33375	37690	33040	
2714	0	29973	42247	33351	34503	33121	
2715	0	30314	40559	33196	30245	32934	
2716	0	31021	35244	33004	24556	33164	
2717	0	31940	28948	32796	20924	32715	
2718	0	32436	24837	32800	25707	33114	
2719	0	32368	23132	32914	33784	32745	
2720	0	32680	20854	32800	39919	32768	
2721	0	33064	20182	32621	38567	32411	
2722	0	33172	20518	32641	30994	32936	
2723	0	33520	23522	32629	25794	33788	
2724	0	34375	27700	32685	24659	33867	
2725	0	34629	32229	32607	27819	32339	
2726	0	34000	35015	32711	30994	31495	
2727	0	33799	37145	32834	31927	32165	
2728	0	34000	38285	32787	31015	32467	
2729	0	34113	37789	32235	31137	32865	
2730	0	33984	38101	32381	32094	33159	
2731	0	33730	38747	32822	31076	32601	
2732	0	34043	36387	31782	31440	32561	
2733	0	34652	32087	30842	33557	33016	
2734	0	34056	28806	32261	35382	33274	
2735	0	32605	26516	33092	32082	33437	
2736	0	31120	26030	33703	27737	33216	
2737	0	30392	27708	33368	31087	32906	
2738	0	30289	31504	32947	42040	32965	
2739	0	30464	34896	32437	49031	33447	
2740	0	31218	36656	32450	44953	33785	
2741	0	32349	36792	32061	37545	33946	
2742	0	33759	36890	31181	29588	33997	
2743	0	34635	37688	31261	25819	31363	
2744	0	35036	38297	32249	27430	31289	
2745	0	34424	39243	32823	29123	33035	
2746	0	33384	38595	33222	30918	32719	
2747	0	32402	36690	33633	29817	30229	
2748	0	31686	34381	33784	34183	30657	
2749	0	31534	33208	33518	41296	30910	
2750	0	31581	31699	33722	43097	31638	
2751	0	31988	30415	33503	38726	33122	
2752	0	32313	30904	33379	34045	33210	
2753	0	32263	31750	33287	27613	33230	
2754	0	32549	31303	33501	24179	33442	
2755	0	33368	30998	33114	25494	33944	
2756	0	33682	29781	32734	25972	33913	
2757	0	33485	30023	32361	25336	33951	
2758	0	32818	31979	31844	25829	33638	
2759	0	31718	35456	31746	23140	33577	
2760	0	30544	37528	31876	17305	33085	
2761	0	29795	40098	32632	19809	32600	
2762	0	30053	42880	33138	37010	32720	
2763	0	30713	43178	33206	55056	33240	
2764	0	31977	38212	33037	61895	33008	
2765	0	33628	31214	33176	53859	32837	
2766	0	33599	24153	32931	46535	31848	
2767	0	33246	19135	32938	42430	32516	
2768	0	34096	17607	33087	34182	33010	
2769	0	35297	17437	33029	25612	33025	
2770	0	35606	19731	32955	24215	32879	
2771	0	35140	24333	33117	28182	33157	
2772	0	34275	29427	32813	30117	31959	
2773	0	33137	33362	32820	27544	33282	
2774	0	32160	35655	32853	26690	34660	
2775	0	32300	36248	32407	30141	33388	
2776	0	32554	37815	31926	33923	33015	
2777	0	32965	38904	32097	33034	33068	
2778	0	33577	38736	32391	27804	30608	
2779	0	34009	37499	32159	21707	31845	
2780	0	33344	31789	32041	20420	32078	
2781	0	31952	26571	32185	24712	33565	
2782	0	31808	25795	32667	30087	33626	
2783	0	32456	27949	33104	33957	32153	
2784	0	33045	30096	33452	40954	32208	
2785	0	33300	32399	33590	45190	32198	
2786	0	33675	36680	33421	41066	32115	
2787	0	33521	40130	32686	33145	32294	
2788	0	33737	40557	32415	31236	33536	
2789	0	33469	38879	33077	31876	33010	
2790	0	32424	36222	33012	35464	31680	
2791	0	30740	35552	32259	39299	32832	
2792	0	30107	34546	32045	37383	32997	
2793	0	29914	31536	31401	31401	33256	
2794	0	31145	28752	30668	22293	33136	
2795	0	32633	27943	32087	22962	32807	
2796	0	33723	30023	33272	31709	32626	
2797	0	33721	32603	33375	36254	32549	
2798	0	33583	32467	33438	39478	32573	
2799	0	33234	31627	33933	38205	32952	
2800	0	32944	30669	33990	36795	32999	
2801	0	33227	28491	33369	36416	33287	
2802	0	32967	28767	32041	34967	33879	
2803	0	32690	31099	31157	31493	33898	
2804	0	31913	32401	31843	29177	33405	
2805	0	31624	33257	32951	29037	32579	
2806	0	31496	33775	32809	28306	32763	
2807	0	32364	34008	32961	21949	33976	
2808	0	33057	32716	33448	14468	33269	
2809	0	33540	31409	33518	15669	33705	
2810	0	33956	30383	33821	25100	33344	
2811	0	34021	31580	34520	39418	33114	
2812	0	33284	34802	34552	52894	32544	
2813	0	32514	36707	32621	52013	32526	
2814	0	32696	37605	31222	43157	32120	
2815	0	33870	38481	31111	34205	32154	
2816	0	34738	39682	30551	30477	32602	
2817	0	34813	40005	32130	33385	33207	
2818	0	33780	40575	32634	36230	32602	
2819	0	32675	40914	32103	35315	30232	
2820	0	31524	40400	32301	28686	31112	
2821	0	31072	37307	32805	23751	31632	
2822	0	30950	32850	32888	29736	32372	
2823	0	31260	28443	33149	37680	32526	
2824	0	31588	24845	32775	46284	32780	
2825	0	31296	23292	31730	51140	32624	
2826	0	30836	23209	32184	45355	32333	
2827	0	30406	23716	32992	35633	32710	
2828	0	30456	24071	33312	25408	33756	
2829	0	31369	24797	33305	20809	33817	
2830	0	33180	26563	33374	23332	33151	
2831	0	35044	28079	33390	25786	33350	
2832	0	36674	30961	33422	25095	33796	
2833	0	37156	33840	33317	23112	32116	
2834	0	37049	37864	33323	18400	32952	
2835	0	36302	41247	33377	21264	33188	
2836	0	34472	43522	33583	28603	33024	
2837	0	33287	43578	33526	37694	32246	
2838	0	31842	41827	33171	41730	33033	
2839	0	30791	39133	32914	42747	32868	
2840	0	30306	36098	32896	41080	32763	
2841	0	30550	32681	32761	36042	32647	
2842	0	30536	29774	32896	33323	32726	
2843	0	31393	29111	32839	35048	33063	
2844	0	31997	29689	32578	34375	32946	
2845	0	32150	29178	32495	34231	32480	
2846	0	31884	27712	32767	37683	32827	
2847	0	31772	26241	33117	39341	33040	
2848	0	32064	24021	33211	36002	32199	
2849	0	32605	23070	32590	30212	32594	
2850	0	33304	23943	32223	27493	33171	
2851	0	34330	26199	32192	29504	32947	
2852	0	35566	28992	31488	31104	32675	
2853	0	35792	32768	32159	33323	33252	
2854	0	34640	36603	32471	35418	33443	
2855	0	33453	38733	31897	31739	33263	
2856	0	32549	38612	32285	28359	32613	
2857	0	31572	38453	33074	25511	32769	
2858	0	31281	39269	33595	27857	33136	
2859	0	30726	41375	33935	32845	33730	
2860	0	30644	41136	33951	34103	33238	
2861	0	30846	38421	33769	33176	32383	
2862	0	31444	33116	33382	29833	32056	
2863	0	32268	29144	32868	24925	32772	
2864	0	32886	27823	32313	23672	32345	
2865	0	33129	27183	31901	28311	33122	
2866	0	33690	26724	30466	38570	33442	
2867	0	33651	27070	30114	48003	33408	
2868	0	33552	30080	31141	48670	32967	
2869	0	34039	33926	31654	40651	32694	
2870	0	34018	35861	31849	33391	32010	
2871	0	33268	37375	32344	30183	32289	
2872	0	32784	37558	32516	31681	32775	
2873	0	32487	37249	33426	34226	33022	
2874	0	32116	37460	33855	32016	33034	
2875	0	31952	34624	33796	21843	32996	
2876	0	32214	31257	33168	16598	32952	
2877	0	32610	27137	33323	21041	32913	
2878	0	33106	25356	33716	29611	33056	
2879	0	34020	26629	33459	38562	32800	
2880	0	35226	31017	33272	46816	32152	
2881	0	35384	35992	33161	52580	32057	
2882	0	33681	38775	33115	51207	32353	
2883	0	31100	38616	32861	39609	32644	
2884	0	30026	35581	32912	26474	33398	
2885	0	30052	31338	33131	23289	32839	
2886	0	30396	28512	33152	27760	32802	
2887	0	31524	27318	33037	30673	32578	
2888	0	32933	26316	32995	31549	32608	
2889	0	33660	24544	32703	31025	32707	
2890	0	34546	23970	32708	30491	33063	
2891	0	35508	25865	32741	28865	33451	
2892	0	35366	28381	32771	25730	32489	
2893	0	33852	30301	32853	24155	32852	
2894	0	32187	33076	32748	24090	33368	
2895	0	30840	34909	32848	30261	32477	
2896	0	30168	38354	32898	38146	32900	
2897	0	30318	42541	32737	42850	32773	
2898	0	31280	44368	32813	44205	32616	
2899	0	32548	44196	32453	40345	32848	
2900	0	34050	42988	32135	30061	33304	
2901	0	35013	40717	31675	28281	32101	
2902	0	35779	37605	31911	31687	32767	
2903	0	35799	34873	32627	35266	32903	
2904	0	34873	33887	32953	36303	32950	
2905	0	32793	33839	33043	31194	33235	
2906	0	30968	34816	33011	28752	32961	
2907	0	30578	33525	32812	29979	32767	
2908	0	31374	29696	32399	28333	32868	
2909	0	32212	26382	32493	27591	33186	
2910	0	32421	25263	32933	28263	32435	
2911	0	32754	26555	33076	31747	31888	
2912	0	32691	28057	33155	35040	32651	
2913	0	32916	29009	32793	39888	33640	
2914	0	32960	28650	32741	43298	33251	
2915	0	32928	29599	32868	42079	33247	
2916	0	33107	30868	33024	35955	32820	
2917	0	32707	31152	33026	32297	31853	
2918	0	32293	31338	32903	33118	32471	
2919	0	32000	30814	32849	33970	33321	
2920	0	31146	30675	32822	29923	33055	
2921	0	30405	31739	32837	25930	32970	
2922	0	30493	32801	32923	18886	32564	
2923	0	31772	34815	33199	17337	33189	
2924	0	33416	36897	33126	22298	33203	
2925	0	35090	40184	32852	31682	31960	
2926	0	36200	42473	32578	43652	31602	
2927	0	35620	41202	32152	51625	32769	
2928	0	34614	38674	31837	51559	33107	
2929	0	34136	35112	31823	43225	33178	
2930	0	32992	32927	31611	30227	33387	
2931	0	31528	29522	31642	19489	33272	
2932	0	31151	25744	31818	16035	33218	
2933	0	31294	24132	32401	20234	32748	
2934	0	31712	25185	32885	29121	32186	
2935	0	31723	28404	33089	35933	32743	
2936	0	31842	29969	32958	39780	33784	
2937	0	32672	31729	32748	41846	32199	
2938	0	32730	33843	32655	39835	31615	
2939	0	32434	32899	32491	35078	31619	
2940	0	33152	30333	32695	34258	32452	
2941	0	34568	27719	33096	39700	32964	
2942	0	34884	25421	33331	43055	32594	
2943	0	34498	25068	33438	37383	32824	
2944	0	34073	27032	33366	30663	31417	
2945	0	33524	29572	33278	27616	31603	
2946	0	33388	33848	33152	28496	35046	
2947	0	33176	38268	33042	26003	34599	
2948	0	32287	39603	33137	24335	33580	
2949	0	31508	39104	33091	25631	32176	
2950	0	31189	39431	33038	30215	32040	
2951	0	31004	38825	32838	33875	32663	
2952	0	31175	36599	32400	34155	32962	
2953	0	31096	33319	32441	33243	32820	
2954	0	31181	30593	32729	32159	32952	
2955	0	31834	29573	33055	31053	33069	
2956	0	32899	29107	33528	30157	33159	
2957	0	34490	30152	33760	27377	33430	
2958	0	35503	33833	33471	21108	33240	
2959	0	35122	35476	31709	22369	33149	
2960	0	34488	35574	30784	31643	32135	
2961	0	32740	34573	31788	40621	32199	
2962	0	30938	33040	32313	47106	32327	
2963	0	29428	31144	31900	50104	32544	
2964	0	29006	28478	31687	48999	32166	
2965	0	29777	27303	32486	45831	32612	
2966	0	31200	27704	32654	33309	32560	
2967	0	32678	29686	32170	23114	32368	
2968	0	34768	32659	32543	25645	32284	
2969	0	36642	34793	32923	31660	32053	
2970	0	37512	36904	33250	34260	33745	
2971	0	37098	40256	33442	30742	33995	
2972	0	35856	42790	33767	27194	33592	
2973	0	34187	44135	33951	27933	34027	
2974	0	32238	43202	34440	28771	33177	
2975	0	30969	39645	34547	25057	32045	
2976	0	30292	35602	34253	24169	31751	
2977	0	30093	31777	33844	28936	32641	
2978	0	31136	30556	32946	38081	33098	
2979	0	32037	31392	30183	43830	33073	
2980	0	32878	32518	28150	43015	32691	
2981	0	33178	31299	29296	39017	32502	
2982	0	32752	29511	31607	31797	32592	
2983	0	32710	28327	32733	25694	32655	
2984	0	32843	27833	32947	26715	32902	
2985	0	32247	29679	33203	32091	33046	
2986	0	31987	31973	33390	36815	33063	
2987	0	31828	32583	33486	37807	32818	
2988	0	31596	32558	33504	33019	33140	
2989	0	31374	34258	33240	25266	33075	
2990	0	31865	32768	32855	23499	32839	
2991	0	33886	29703	32685	27260	32676	
2992	0	35230	25616	33077	34745	32971	
2993	0	35812	22245	33269	42958	32525	
2994	0	35794	22819	33467	44703	32295	
2995	0	34401	26605	33518	38726	33085	
2996	0	32876	32297	33307	32358	32730	
2997	0	32034	36183	33299	29688	33092	
2998	0	31917	36835	33104	31289	33175	
2999	0	31792	36683	32874	31963	32967	
3000	0	31718	35135	32623	32697	32573	
3001	0	32025	32471	32643	32609	32455	
3002	0	31863	29653	32930	30470	32685	
3003	0	31921	29819	33065	27965	33450	
3004	0	31947	32133	32411	26235	33877	
3005	0	32174	34078	31558	27067	32813	
3006	0	32705	35941	31401	32360	31686	
3007	0	33956	37959	32121	33099	32327	
3008	0	34370	39104	32908	32751	32665	
3009	0	34048	40907	33415	34148	32657	
3010	0	33566	40089	33655	34345	32734	
3011	0	32839	34926	33687	36306	33274	
3012	0	33105	30192	32424	42901	32908	
3013	0	32859	28015	32026	44735	32009	
3014	0	31908	27332	31913	36517	32472	
3015	0	31490	26262	31933	27201	33329	
3016	0	31430	26152	32559	23627	32827	
3017	0	32059	26081	32848	24766	32871	
3018	0	32642	26842	32915	29698	32297	
3019	0	33100	29477	32943	33020	32839	
3020	0	33202	33011	32868	34562	32589	
3021	0	33270	36854	32981	34662	32741	
3022	0	33566	39323	32981	35719	32743	
3023	0	33839	39275	33079	37095	32801	
3024	0	33682	38198	32869	32666	32943	
3025	0	33208	34707	32960	24935	32696	
3026	0	32690	31750	33337	20111	32501	
3027	0	32531	31697	32967	22854	33031	
3028	0	32539	33539	32402	29614	32675	
3029	0	32256	34872	32396	39282	33716	
3030	0	31712	36091	32755	48662	33016	
3031	0	31449	37718	32665	51024	33301	
3032	0	31326	38277	32642	45733	32740	
3033	0	31600	38983	32914	34937	32396	
3034	0	31645	35806	32920	28253	32953	
3035	0	31413	31632	32703	30826	32438	
3036	0	31744	28560	31879	34841	32688	
3037	0	32673	26334	31979	36607	32949	
3038	0	33749	24566	32583	34404	33101	
3039	0	34000	24277	32691	28480	33232	
3040	0	34054	25851	33031	20826	32861	
3041	0	34406	28128	33168	16485	32315	
3042	0	34460	30811	32818	18392	32762	
3043	0	34077	31815	32255	25171	32594	
3044	0	33048	31953	32610	30062	32178	
3045	0	32041	32927	33437	35817	32372	
3046	0	31728	33328	33909	39969	32667	
3047	0	31830	33799	33650	41187	32987	
3048	0	32102	35069	33271	39969	32953	
3049	0	32995	36907	33392	40812	32604	
3050	0	33966	37191	32890	40707	33143	
3051	0	33450	37261	32111	37509	33258	
3052	0	32552	37831	30413	32390	32992	
3053	0	32722	36551	29167	29066	32615	
3054	0	32902	36237	30201	27723	32903	
3055	0	33048	36272	31911	28250	32811	
3056	0	33882	34916	33240	25691	32543	
3057	0	34331	33059	33654	25523	33270	
3058	0	34403	31632	33712	29936	32882	
3059	0	34468	31334	33734	34013	32464	
3060	0	34113	32007	33752	31939	32899	
3061	0	33104	32594	33606	25165	31967	
3062	0	31456	31518	33578	21712	32263	
3063	0	30012	30471	33568	28832	33246	
3064	0	28690	29428	33674	43278	32971	
3065	0	28136	30064	33650	50915	33142	
3066	0	28324	33200	32896	54111	33179	
3067	0	29527	35627	31859	49395	32710	
3068	0	31250	37216	31137	39099	32400	
3069	0	32768	37425	31234	27887	31569	
3070	0	35044	35428	32474	20690	31668	
3071	0	37255	31536	33176	18823	31883	
3072	0	38136	27286	33381	24293	33112	
3073	0	38296	25616	33377	31071	33607	
3074	0	37215	26358	33283	37762	33799	
3075	0	35557	27981	32536	36703	33535	
3076	0	33314	29191	32240	31661	32829	
3077	0	31570	29099	32272	29013	32965	
3078	0	31021	28432	32829	31069	32861	
3079	0	30592	27771	33168	32711	33047	
3080	0	30343	28517	33005	34744	32954	
3081	0	30568	30504	33117	34795	33099	
3082	0	31668	32105	33094	29907	33417	
3083	0	32741	33186	32577	21312	32632	
3084	0	32890	35616	31992	14792	32967	
3085	0	32716	38585	32231	17914	32813	
3086	0	32586	41544	32642	33128	31169	
3087	0	33061	42810	32849	47450	31996	
3088	0	32638	42061	32808	56251	33204	
3089	0	32716	39705	32775	55601	33643	
3090	0	32910	37767	32856	45763	32510	
3091	0	32686	34532	33051	34631	32975	
3092	0	32198	31703	33188	29005	33142	
3093	0	31777	29106	33338	29147	32291	
3094	0	31769	24387	33238	32203	32731	
3095	0	32263	20407	32997	32681	32861	
3096	0	32813	20202	32935	31933	33004	
3097	0	32804	22675	32764	28490	33191	
3098	0	32557	25161	32615	25564	33222	
3099	0	32096	27999	32775	26832	32956	
3100	0	32233	32187	32797	29277	32821	
3101	0	32618	36050	32886	31056	32595	
3102	0	33351	39555	32735	31365	32813	
3103	0	34260	41600	32419	33405	33249	
3104	0	34982	44005	32048	30633	33432	
3105	0	34894	46279	31886	28361	33083	
3106	0	34082	46227	31950	28665	32665	
3107	0	32616	42326	32237	31839	32518	
3108	0	32243	36844	32796	31190	32737	
3109	0	32805	30381	32845	29264	33091	
3110	0	32740	25747	32923	30619	32868	
3111	0	32375	23981	33231	32800	32397	
3112	0	32073	23361	33144	36461	32805	
3113	0	32395	24431	33051	38090	33139	
3114	0	32503	25047	32921	40892	33035	
3115	0	32628	25935	32785	43651	33402	
3116	0	33206	28415	32771	37779	32258	
3117	0	34020	31192	32752	26318	33231	
3118	0	34768	33366	32815	24458	32595	
3119	0	34458	35429	32815	30437	32410	
3120	0	34207	37148	32836	37043	32730	
3121	0	32976	38891	32988	39050	33903	
3122	0	31361	39559	33218	40217	34205	
3123	0	29894	38875	33474	39373	34298	
3124	0	29341	38139	33604	30860	32595	
3125	0	29050	36742	33541	25968	32005	
3126	0	29090	37530	33211	26787	32775	
3127	0	29926	37049	32370	32507	31579	
3128	0	31160	36550	30818	31943	31462	
3129	0	33180	33840	29979	26707	32455	
3130	0	35101	29779	30563	28667	32106	
3131	0	35671	26651	32056	31101	32252	
3132	0	35019	25629	33020	26163	33107	
3133	0	33796	27367	33463	24295	32817	
3134	0	32468	29720	34125	28939	32680	
3135	0	32262	30516	34631	35554	31936	
3136	0	31432	28698	33724	41218	31857	
3137	0	31539	27942	32943	43090	32866	
3138	0	32768	31312	33090	36695	33225	
3139	0	33698	36032	32518	35982	33144	
3140	0	35128	36107	32365	35979	32963	
3141	0	36016	33741	31694	38931	33545	
3142	0	35800	31829	31294	40893	33395	
3143	0	35149	30498	31695	36160	33364	
3144	0	34966	29703	32135	30142	32991	
3145	0	34414	30011	32443	28531	32965	
3146	0	34262	29583	33590	28871	32722	
3147	0	33634	29699	34354	32016	33420	
3148	0	32809	30578	34649	32459	33876	
3149	0	31751	31143	34294	29112	32852	
3150	0	30796	31535	31963	29885	33048	
3151	0	30209	31081	31239	32531	32947	
3152	0	29627	31175	32507	32624	32071	
3153	0	29422	31718	32801	30429	32237	
3154	0	29892	31815	32647	28427	32322	
3155	0	30822	33220	32548	28556	32128	
3156	0	31992	35387	32391	31073	32400	
3157	0	33712	37421	32613	31140	32940	
3158	0	35675	37240	32729	25629	33037	
3159	0	36720	35975	32199	27142	32751	
3160	0	36812	35083	32441	32811	32478	
3161	0	35758	35864	32869	35279	32909	
3162	0	33678	35078	33176	34615	33136	
3163	0	31064	32557	32880	33080	33171	
3164	0	29494	31921	32775	33580	33191	
3165	0	29002	33719	32793	34495	32667	
3166	0	30008	34399	31939	34252	32832	
3167	0	31541	32443	32301	42404	33100	
3168	0	32688	30083	32841	49574	32576	
3169	0	33174	31919	32994	50730	32837	
3170	0	33134	36156	33126	45520	33073	
