# OpenSignals Text File Format
# {"00:07:80:3B:46:63": {"sensor": ["EMG", "EMG", "EMG", "EMG", "EMG"], "device name": "00:07:80:3B:46:63", "column": ["nSeq", "DI", "CH1", "CH2", "CH3", "CH4", "CH5"], "sync interval": 2, "time": "10:53:4.700", "comments": "", "device connection": "BTH00:07:80:3B:46:63", "channels": [1, 2, 3, 4, 5], "date": "2017-4-28", "mode": 0, "digital IO": [0, 1], "firmware version": 770, "device": "biosignalsplux", "position": 0, "sampling rate": 1000, "label": ["CH1", "CH2", "CH3", "CH4", "CH5"], "resolution": [16, 16, 16, 16, 16], "special": [{}, {}, {}, {}, {}]}}
# EndOfHeader
0	0	32788	32335	32717	32833	32769	
1	0	32773	32553	32727	32038	32809	
2	0	32768	32535	32769	31793	33095	
3	0	32844	32629	32758	31578	32875	
4	0	32755	32455	32583	31103	32903	
5	0	32746	32598	32611	31239	32747	
6	0	32797	32530	32624	32114	32924	
7	0	32789	32427	32634	33167	32647	
8	0	32789	32731	32582	35610	32833	
9	0	32812	32671	32582	36463	32667	
10	0	32824	32727	32774	35995	32822	
11	0	32868	32767	32749	35218	32861	
12	0	32820	32967	32722	33053	32917	
13	0	32848	32903	32767	31443	32527	
14	0	32816	32918	32775	31503	32813	
15	0	32797	32583	32775	31899	32711	
16	0	32768	32743	32789	32575	33005	
17	0	32772	32594	32699	33011	33183	
18	0	32688	32421	32576	33035	33057	
19	0	32701	32237	32551	32557	32871	
20	0	32711	32435	32591	32877	32847	
21	0	32775	32489	32775	32325	32865	
22	0	32775	32447	32775	31872	32855	
23	0	32801	32766	32837	31922	32883	
24	0	32775	32763	32793	31767	32875	
25	0	32719	32871	32775	31751	32751	
26	0	32741	32909	32752	32187	32684	
27	0	32717	32765	32756	32477	32835	
28	0	32774	32805	32739	32833	32839	
29	0	32809	32600	32702	33773	32797	
30	0	32831	32690	32738	34270	32849	
31	0	32834	32775	32797	34623	33105	
32	0	32827	32595	32757	34247	32922	
33	0	32811	32771	32775	32263	32647	
34	0	32770	32531	32727	31417	32748	
35	0	32827	32357	32607	31711	32793	
36	0	32772	32111	32626	32135	32699	
37	0	32716	32301	32637	32155	32997	
38	0	32727	32453	32652	32183	33315	
39	0	32725	32419	32723	32603	32477	
40	0	32726	32775	32812	32967	32087	
41	0	32745	32793	32792	32639	32693	
42	0	32722	32886	32791	31979	32993	
43	0	32720	32635	32727	32444	32989	
44	0	32749	32822	32763	33435	32869	
45	0	32774	32681	32685	34578	33001	
46	0	32791	32835	32715	35335	33051	
47	0	32843	32660	32681	34535	32813	
48	0	32864	32893	32630	32446	32734	
49	0	32839	32791	32579	31311	32871	
50	0	32825	32894	32711	32063	33147	
51	0	32785	32775	32825	32370	32767	
52	0	32713	32766	32818	31636	32772	
53	0	32658	32610	32693	32155	33039	
54	0	32751	32625	32775	33348	32921	
55	0	32822	32453	32837	34413	32895	
56	0	32760	32592	32799	34759	32847	
57	0	32801	32481	32658	34275	32709	
58	0	32821	32431	32581	33101	32863	
59	0	32717	32487	32613	33540	32983	
60	0	32669	32591	32615	33068	32949	
61	0	32720	32415	32601	31230	32735	
62	0	32880	32405	32647	30759	32753	
63	0	32948	32715	32643	31793	33054	
64	0	32928	32807	32655	32450	32947	
65	0	32833	32947	32734	32680	32943	
66	0	32829	32869	32727	32455	32999	
67	0	32861	33071	32735	32341	32805	
68	0	32801	33071	32694	31539	32694	
69	0	32843	32807	32697	32023	32737	
70	0	32744	32797	32679	32491	32618	
71	0	32632	32593	32775	32454	32915	
72	0	32669	32577	32697	33943	33009	
73	0	32713	32315	32598	33898	32685	
74	0	32781	32297	32633	32931	32820	
75	0	32737	32365	32772	32527	32883	
76	0	32673	32455	32725	33053	32947	
77	0	32732	32406	32794	32357	32748	
78	0	32849	32647	32733	32035	32510	
79	0	32839	32623	32695	32059	32940	
80	0	32800	32687	32799	32255	32704	
81	0	32834	32538	32685	33240	32775	
82	0	32833	32863	32631	34867	32946	
83	0	32775	32855	32663	34095	33111	
84	0	32821	32923	32747	33074	32962	
85	0	32765	32822	32809	33366	32639	
86	0	32775	33005	32767	33396	32916	
87	0	32797	32845	32788	32863	32983	
88	0	32760	32813	32787	32387	32923	
89	0	32850	32487	32669	32143	32913	
90	0	32800	32452	32603	31785	32796	
91	0	32764	32579	32583	32063	32914	
92	0	32819	32474	32699	32429	32955	
93	0	32755	32402	32829	33091	32795	
94	0	32733	32395	32731	32879	33026	
95	0	32622	32667	32738	32707	32921	
96	0	32740	32559	32699	33248	32823	
97	0	32770	32775	32775	33339	33087	
98	0	32728	32711	32646	32885	32898	
99	0	32765	32795	32583	32938	32421	
100	0	32839	32839	32737	32731	32927	
101	0	32987	32639	32751	33063	32894	
102	0	33021	32695	32767	32989	33059	
103	0	32981	32463	32683	32131	32670	
104	0	32959	32693	32661	31775	32595	
105	0	33001	32543	32678	32207	33003	
106	0	33072	32571	32679	33080	32821	
107	0	33067	32431	32571	33449	32761	
108	0	32967	32615	32517	33633	32706	
109	0	32943	32768	32491	33355	32763	
110	0	32889	32887	32615	32503	32907	
111	0	32833	32613	32675	32333	32685	
112	0	32839	32883	32758	31655	32541	
113	0	32904	32743	32737	31293	32845	
114	0	32784	32551	32768	31131	32997	
115	0	32787	32421	32727	31779	32855	
116	0	32898	32591	32730	32056	32787	
117	0	32865	32647	32745	32379	33035	
118	0	32945	32765	32787	33421	32959	
119	0	32869	32717	32799	35842	32839	
120	0	32824	33053	32640	36103	32775	
121	0	32672	32835	32675	36181	32706	
122	0	32599	32717	32647	35207	33056	
123	0	32489	32515	32630	33302	32999	
124	0	32492	32662	32651	33390	32703	
125	0	32384	32534	32775	34675	33038	
126	0	32416	32617	32903	33093	32767	
127	0	32393	32387	32899	30742	32823	
128	0	32301	32543	32919	30139	32978	
129	0	32297	32357	32833	30561	32691	
130	0	32322	32391	32805	31663	32749	
131	0	32504	32301	32855	30897	32967	
132	0	32676	32663	32847	31303	32717	
133	0	32672	32717	32863	31751	32671	
134	0	32564	32898	32891	32064	32919	
135	0	32477	33046	32858	32583	32983	
136	0	32500	33344	32855	33997	32915	
137	0	32582	33278	32759	34731	32941	
138	0	32735	33029	32698	34471	32675	
139	0	32775	32625	32708	34241	32711	
140	0	32902	32327	32690	33431	32743	
141	0	32963	31989	32679	33487	32711	
142	0	32899	31495	32710	33339	32871	
143	0	32928	31544	32695	33490	32898	
144	0	32925	31859	32745	32519	32605	
145	0	33027	32071	32658	31183	32955	
146	0	33139	32391	32647	30611	32990	
147	0	33144	32901	32699	32166	32764	
148	0	33055	33035	32643	32466	32975	
149	0	32902	33203	32573	32259	32984	
150	0	32880	32948	32519	31211	32839	
151	0	32803	33008	32630	30855	33048	
152	0	32787	32863	32749	31687	32956	
153	0	32747	32891	32807	32455	32767	
154	0	32862	32711	32775	32711	32538	
155	0	32757	32929	32707	33311	32792	
156	0	32775	32903	32707	34027	32942	
157	0	32808	32793	32771	34139	33003	
158	0	32775	32607	32746	33735	32855	
159	0	32726	32722	32739	33022	33023	
160	0	32754	32822	32787	33011	32855	
161	0	32837	32627	32775	33625	32627	
162	0	32738	32893	32792	33477	32569	
163	0	32696	32880	32711	33057	32837	
164	0	32774	32720	32711	33107	33091	
165	0	32795	32797	32818	33216	33127	
166	0	32832	32850	32775	32460	32525	
167	0	32873	32716	32767	32067	32569	
168	0	32847	32647	32666	32186	32843	
169	0	32833	32680	32703	32441	33127	
170	0	32756	32674	32717	32762	32875	
171	0	32754	32351	32709	33183	32775	
172	0	32770	32583	32643	32771	32866	
173	0	32710	32568	32650	33082	32978	
174	0	32733	32495	32624	33623	33012	
175	0	32774	32163	32672	33422	33176	
176	0	32741	32339	32631	31949	33087	
177	0	32722	32295	32633	32087	32818	
178	0	32831	32541	32643	33275	32575	
179	0	32805	32727	32647	33503	32868	
180	0	32731	32989	32567	32103	32961	
181	0	32656	32930	32633	32153	32807	
182	0	32715	33139	32749	32789	32743	
183	0	32842	32947	32751	33851	33003	
184	0	32890	32895	32763	33827	33009	
185	0	32882	32775	32775	33252	32726	
186	0	32819	32619	32747	34243	33067	
187	0	32812	32415	32762	33381	33019	
188	0	32906	32489	32773	32445	32493	
189	0	32869	32379	32573	30843	32659	
190	0	32799	32349	32608	29874	32851	
191	0	32698	32291	32575	30303	33009	
192	0	32740	32460	32687	30826	32855	
193	0	32688	32519	32769	32195	32985	
194	0	32746	32455	32774	33647	33008	
195	0	32824	32465	32774	34719	32873	
196	0	32848	32839	32748	35607	32661	
197	0	32839	32769	32723	35307	32635	
198	0	32868	32761	32726	34347	32722	
199	0	32842	32707	32725	33079	32931	
200	0	32828	33143	32710	31784	32983	
201	0	32801	33383	32711	31888	32751	
202	0	32800	33050	32775	32359	32829	
203	0	32722	32983	32822	31061	32863	
204	0	32664	32485	32823	31815	32831	
205	0	32613	31903	32747	32937	32799	
206	0	32758	31943	32775	34367	32976	
207	0	32816	31971	32775	33926	32882	
208	0	32884	32246	32687	32580	32705	
209	0	32933	32735	32683	31981	32675	
210	0	32812	33002	32681	32754	32794	
211	0	32800	32739	32671	33017	32847	
212	0	32722	32787	32697	32845	32743	
213	0	32770	32626	32719	32903	32901	
214	0	32746	32634	32711	33056	32923	
215	0	32713	32621	32815	32366	32743	
216	0	32762	32402	32803	31913	32943	
217	0	32760	32663	32799	31789	32711	
218	0	32750	32639	32775	31902	32867	
219	0	32772	32549	32805	32231	32955	
220	0	32808	32747	32819	32993	32950	
221	0	32799	32767	32711	33389	32874	
222	0	32832	32551	32621	32825	32867	
223	0	32774	32824	32639	32151	32843	
224	0	32706	32878	32639	31981	32733	
225	0	32765	32947	32553	32522	32717	
226	0	32765	33205	32589	33090	32711	
227	0	32696	33019	32646	33183	32731	
228	0	32664	32647	32775	33199	33012	
229	0	32775	32291	32846	33595	33025	
230	0	32768	32436	32793	35308	32793	
231	0	32772	32381	32757	34690	32919	
232	0	32792	32573	32731	32278	32863	
233	0	32742	32687	32717	31337	32866	
234	0	32712	33029	32759	31707	32831	
235	0	32755	32858	32762	31509	32915	
236	0	32844	32710	32699	32263	33083	
237	0	32838	32489	32690	32775	32761	
238	0	32864	32619	32619	34247	32421	
239	0	32914	32503	32607	35158	32827	
240	0	32913	32450	32573	34119	32801	
241	0	32858	32301	32683	32559	32941	
242	0	32770	32423	32731	31847	32983	
243	0	32830	32391	32800	31899	32647	
244	0	32890	32199	32701	32026	32743	
245	0	32881	32377	32727	32023	32901	
246	0	32805	32391	32756	31653	33127	
247	0	32732	32503	32806	31541	33047	
248	0	32787	32577	32825	31857	32762	
249	0	32754	32847	32731	32928	32843	
250	0	32676	32903	32741	34311	32711	
251	0	32666	32813	32815	34658	32617	
252	0	32824	33034	32758	34690	32857	
253	0	32807	32878	32749	33539	32997	
254	0	32768	32875	32695	32647	33007	
255	0	32683	32691	32697	32013	32941	
256	0	32733	32879	32674	31521	32689	
257	0	32748	32725	32749	31328	32873	
258	0	32790	32564	32763	31386	32711	
259	0	32836	32791	32765	31934	32797	
260	0	32813	32794	32757	32903	32875	
261	0	32770	32775	32775	33703	32851	
262	0	32731	32939	32679	34611	32762	
263	0	32772	32831	32671	34119	32903	
264	0	32832	32767	32634	33755	33149	
265	0	32834	32757	32656	33632	32875	
266	0	32833	32645	32627	33511	32509	
267	0	32832	32735	32658	32531	32704	
268	0	32833	32580	32604	32263	32899	
269	0	32753	32927	32582	31931	32923	
270	0	32775	32869	32677	31599	32932	
271	0	32761	32911	32644	32190	32903	
272	0	32772	32775	32663	32519	32629	
273	0	32775	32571	32705	32767	32887	
274	0	32808	32519	32764	32831	33094	
275	0	32772	32334	32690	32801	32839	
276	0	32818	32115	32655	32907	32762	
277	0	32763	32259	32710	32753	32861	
278	0	32710	32263	32749	32801	33021	
279	0	32655	32205	32747	33071	33141	
280	0	32754	32176	32774	32343	32775	
281	0	32797	32646	32819	32047	32448	
282	0	32824	32717	32789	31751	32859	
283	0	32818	32629	32685	32079	32885	
284	0	32804	32717	32698	32642	32903	
285	0	32750	32711	32681	33404	32967	
286	0	32772	32722	32729	34023	32939	
287	0	32813	32542	32811	34759	32933	
288	0	32804	32821	32730	33935	32737	
289	0	32865	32868	32647	31371	33042	
290	0	32886	32897	32631	30383	32863	
291	0	32924	32711	32598	31137	32891	
292	0	32870	32922	32627	31807	32696	
293	0	32870	32803	32711	32003	32735	
294	0	32828	32642	32775	32809	33025	
295	0	32718	32513	32775	33982	33165	
296	0	32707	32861	32772	34837	32775	
297	0	32792	32825	32804	35622	32603	
298	0	32764	32879	32839	33798	32529	
299	0	32775	32658	32795	32203	32800	
300	0	32738	32886	32679	32493	32862	
301	0	32722	32807	32727	33110	32603	
302	0	32645	32813	32763	33252	32914	
303	0	32608	32787	32775	32813	32915	
304	0	32720	32896	32829	31835	32775	
305	0	32699	32791	32855	31278	32873	
306	0	32718	32628	32775	31149	33036	
307	0	32775	32261	32793	31431	32947	
308	0	32718	32195	32621	31727	32803	
309	0	32796	32071	32543	32291	32703	
310	0	32863	32087	32560	33406	32671	
311	0	32877	32198	32535	36273	32789	
312	0	32848	32591	32715	37418	32827	
313	0	32853	32606	32804	34978	32569	
314	0	32825	32669	32800	31695	32948	
315	0	32753	32583	32757	31723	33076	
316	0	32677	32673	32763	32324	32951	
317	0	32731	32869	32737	32228	32851	
318	0	32653	32789	32769	31741	33095	
319	0	32741	32931	32775	31291	32812	
320	0	32742	32855	32737	33011	32711	
321	0	32775	33159	32765	34439	32735	
322	0	32844	32867	32756	33145	32847	
323	0	32928	32711	32696	33305	32998	
324	0	32884	32455	32647	34516	32907	
325	0	32839	32461	32608	32315	32871	
326	0	32845	32421	32595	31232	33005	
327	0	32813	32386	32608	32001	32727	
328	0	32829	32521	32645	32863	32711	
329	0	32792	32619	32717	32861	33083	
330	0	32747	32694	32741	31751	33121	
331	0	32688	32583	32833	31725	33009	
332	0	32718	32967	32848	32439	32599	
333	0	32723	32919	32815	33551	32741	
334	0	32742	32885	32771	33452	32890	
335	0	32802	32735	32805	32424	32739	
336	0	32751	32723	32775	32167	32647	
337	0	32711	32527	32769	32656	32755	
338	0	32680	32324	32759	32989	32775	
339	0	32651	32151	32742	33138	33037	
340	0	32770	32359	32805	32527	33131	
341	0	32820	32358	32749	32030	32903	
342	0	32745	32591	32763	32607	32711	
343	0	32775	32477	32773	32723	32571	
344	0	32706	32775	32770	32711	32903	
345	0	32728	32903	32775	32227	32711	
346	0	32787	32915	32735	31331	33163	
347	0	32761	32745	32789	31093	32839	
348	0	32749	33025	32722	32321	32711	
349	0	32689	32855	32738	33014	32749	
350	0	32722	32897	32741	33451	32775	
351	0	32804	32881	32775	32627	32979	
352	0	32751	32861	32775	32240	33012	
353	0	32809	33077	32703	33982	32775	
354	0	32752	33063	32813	35037	32795	
355	0	32805	32707	32775	33427	32770	
356	0	32824	32693	32751	32734	32705	
357	0	32791	32391	32807	33061	32899	
358	0	32790	32179	32827	33325	32898	
359	0	32789	32051	32830	34260	32891	
360	0	32813	32205	32800	35845	32981	
361	0	32948	32323	32618	34447	32757	
362	0	32805	32260	32673	32545	32967	
363	0	32775	32642	32819	31798	32887	
364	0	32796	32634	32681	31879	32743	
365	0	32858	32739	32752	32455	32762	
366	0	32860	32707	32720	32590	32733	
367	0	32800	32839	32729	32059	32807	
368	0	32824	32791	32699	32791	32735	
369	0	32797	32511	32733	32659	33089	
370	0	32774	32647	32743	32640	32903	
371	0	32825	32590	32751	32634	32839	
372	0	32743	32337	32755	32199	32807	
373	0	32755	32663	32729	32115	32643	
374	0	32704	32687	32723	31879	32792	
375	0	32728	32662	32792	32211	33025	
376	0	32720	32898	32813	32731	32998	
377	0	32765	32797	32775	32958	33005	
378	0	32749	32789	32721	32669	32839	
379	0	32787	32715	32717	32451	32551	
380	0	32815	32825	32795	32929	32691	
381	0	32825	32815	32743	33074	32827	
382	0	32698	32723	32743	33129	32993	
383	0	32726	33107	32801	32327	32997	
384	0	32646	32871	32813	31266	32745	
385	0	32642	32899	32713	31111	32775	
386	0	32678	32660	32744	32851	33005	
387	0	32764	32755	32603	34450	32927	
388	0	32773	32743	32615	34973	32825	
389	0	32846	32817	32583	33991	33091	
390	0	32835	32730	32658	33623	33063	
391	0	32882	32343	32627	32263	32679	
392	0	32900	32499	32665	30987	32771	
393	0	32809	32359	32707	31045	32897	
394	0	32784	32355	32759	31697	32658	
395	0	32850	32343	32813	32128	32735	
396	0	32925	32316	32738	32651	32775	
397	0	32770	32449	32706	33699	33012	
398	0	32762	32799	32758	34680	32839	
399	0	32895	32953	32699	34837	32369	
400	0	32972	32831	32748	33923	32943	
401	0	32937	32927	32739	33063	33040	
402	0	32815	32775	32761	32897	32525	
403	0	32717	32851	32702	32489	32852	
404	0	32672	32919	32729	32704	32789	
405	0	32677	32801	32751	31526	32975	
406	0	32696	32413	32743	31618	32903	
407	0	32720	32427	32775	32743	32726	
408	0	32745	32247	32775	33234	33119	
409	0	32764	31931	32794	32867	32998	
410	0	32808	32111	32839	32579	33033	
411	0	32835	32231	32815	33230	32861	
412	0	32820	32569	32775	34491	32863	
413	0	32839	32752	32757	33535	32750	
414	0	32824	33202	32733	31975	32643	
415	0	32821	33219	32723	31239	32741	
416	0	32886	33185	32694	31553	32797	
417	0	32749	33383	32667	32150	32719	
418	0	32727	32995	32579	32247	32839	
419	0	32744	32636	32603	31737	32898	
420	0	32837	32616	32661	31879	32868	
421	0	32764	32259	32620	33539	32812	
422	0	32797	32017	32591	35494	32775	
423	0	32847	31795	32673	35413	32775	
424	0	32793	32183	32739	33661	32953	
425	0	32755	32481	32745	32337	32775	
426	0	32785	32839	32698	31929	32739	
427	0	32775	32909	32799	32071	32734	
428	0	32747	32863	32757	31617	32750	
429	0	32739	33005	32635	31171	32911	
430	0	32738	32771	32613	30906	33005	
431	0	32759	32295	32627	31367	33051	
432	0	32770	32207	32833	33259	33089	
433	0	32741	32039	32757	33946	32930	
434	0	32796	32361	32711	34345	32583	
435	0	32880	32722	32769	34802	32470	
436	0	32860	32861	32790	33499	32612	
437	0	32806	33089	32667	33159	32893	
438	0	32730	33043	32593	33083	32662	
439	0	32787	32967	32701	33007	32565	
440	0	32864	32793	32815	32898	32761	
441	0	32775	32896	32833	33083	32775	
442	0	32763	32966	32747	32571	32935	
443	0	32765	32911	32680	32175	33042	
444	0	32775	32865	32696	32061	32939	
445	0	32755	32663	32704	31991	32903	
446	0	32676	32775	32773	31823	32918	
447	0	32694	32631	32822	32059	32919	
448	0	32744	32363	32775	32759	32831	
449	0	32733	32623	32796	33405	32737	
450	0	32717	32359	32775	33442	32903	
451	0	32713	32411	32744	33894	32711	
452	0	32797	32644	32647	33545	32450	
453	0	32719	32531	32634	32743	32844	
454	0	32752	32719	32613	32479	33081	
455	0	32891	32687	32512	32103	33113	
456	0	32857	32947	32641	32227	33203	
457	0	32818	32917	32685	32256	32867	
458	0	32793	33031	32705	32691	32759	
459	0	32825	32871	32754	32851	32557	
460	0	32758	33009	32825	32647	32984	
461	0	32717	32967	32775	32139	32889	
462	0	32722	32696	32767	31878	32903	
463	0	32753	32775	32677	32019	33006	
464	0	32792	32514	32647	32711	32922	
465	0	32824	32235	32595	33607	32678	
466	0	32855	32263	32642	33659	32583	
467	0	32898	32119	32603	34123	32623	
468	0	32824	31943	32639	33940	32603	
469	0	32891	32367	32581	32483	32795	
470	0	32831	32428	32590	31223	32873	
471	0	32789	32687	32683	31627	33043	
472	0	32801	32542	32807	31239	32918	
473	0	32647	32945	32775	30971	33001	
474	0	32740	33039	32787	31231	32903	
475	0	32724	33137	32761	34665	32987	
476	0	32726	33030	32787	37679	32879	
477	0	32793	33190	32747	37570	32803	
478	0	32804	33011	32711	34963	32745	
479	0	32824	32406	32695	32819	32745	
480	0	32904	32158	32765	32640	32887	
481	0	32837	31919	32749	31927	33132	
482	0	32775	31981	32741	31473	33177	
483	0	32837	32063	32775	31337	33143	
484	0	32833	32408	32759	31110	32680	
485	0	32856	32583	32775	32232	32871	
486	0	32765	32677	32743	33111	32895	
487	0	32797	32961	32735	32333	32407	
488	0	32798	32997	32789	33083	32647	
489	0	32804	33059	32726	33773	32829	
490	0	32769	33135	32767	32640	32987	
491	0	32723	33103	32766	31443	33095	
492	0	32671	33047	32795	31971	32997	
493	0	32821	32711	32831	32384	32918	
494	0	32752	32771	32833	32742	32818	
495	0	32731	32503	32770	32611	32746	
496	0	32784	32443	32759	32847	33079	
497	0	32767	32293	32731	33183	32827	
498	0	32775	32323	32717	33265	32653	
499	0	32754	32317	32662	33287	32819	
500	0	32758	32357	32732	33442	32813	
501	0	32768	32511	32666	33557	32739	
502	0	32772	32677	32669	32965	32707	
503	0	32809	32669	32699	31767	33023	
504	0	32816	32807	32742	31390	32849	
505	0	32813	32710	32775	31693	32793	
506	0	32737	32943	32821	31681	32933	
507	0	32716	32693	32747	32179	32669	
508	0	32704	32731	32625	32455	32827	
509	0	32772	32589	32571	32087	32886	
510	0	32724	32663	32738	32095	32661	
511	0	32759	32711	32741	32694	32851	
512	0	32804	32747	32834	33935	33059	
513	0	32835	32887	32815	36626	33001	
514	0	32775	32839	32775	37319	33007	
515	0	32750	33191	32827	33984	32711	
516	0	32784	33117	32711	31493	32983	
517	0	32743	33035	32757	31409	32967	
518	0	32746	32667	32724	31619	32903	
519	0	32749	32703	32738	31376	32925	
520	0	32786	32517	32829	31921	33147	
521	0	32838	32371	32775	32679	32971	
522	0	32816	32314	32703	32743	32367	
523	0	32775	32263	32634	32427	32687	
524	0	32728	32401	32599	32377	33009	
525	0	32784	32263	32711	32751	32827	
526	0	32758	32399	32735	33311	32991	
527	0	32774	32499	32761	32984	33071	
528	0	32775	32419	32775	32599	32829	
529	0	32824	32711	32683	33001	32911	
530	0	32863	32761	32699	32903	32536	
531	0	32775	32755	32717	32649	32887	
532	0	32683	32903	32741	32965	32941	
533	0	32710	32749	32793	33371	32683	
534	0	32698	32611	32825	33095	32733	
535	0	32796	32793	32667	32885	32751	
536	0	32884	32647	32583	32160	32943	
537	0	32863	32615	32613	32061	32942	
538	0	32946	32256	32569	32387	32767	
539	0	32890	32435	32579	33005	32803	
540	0	32788	32406	32563	33447	32983	
541	0	32805	32424	32647	33982	32983	
542	0	32792	32425	32743	33573	32544	
543	0	32789	32682	32729	33475	32859	
544	0	32722	32767	32706	32749	32999	
545	0	32736	33002	32671	32738	32959	
546	0	32809	32915	32703	32217	32751	
547	0	32775	32903	32774	32583	32791	
548	0	32743	32997	32775	32895	32945	
549	0	32671	33005	32771	33061	33041	
550	0	32566	33051	32711	33702	32607	
551	0	32703	32597	32704	33379	32559	
552	0	32785	32647	32729	32471	32811	
553	0	32858	32593	32793	32213	33087	
554	0	32829	32517	32767	32743	32887	
555	0	32867	32743	32720	31961	32681	
556	0	32874	32803	32647	31417	32967	
557	0	32849	32861	32647	31197	33035	
558	0	32841	32911	32627	31881	32839	
559	0	32833	32793	32702	33535	32719	
560	0	32811	32690	32753	34381	32983	
561	0	32739	32609	32775	33031	32990	
562	0	32728	32499	32803	31606	32987	
563	0	32728	32531	32809	31972	32774	
564	0	32694	32263	32804	33101	32637	
565	0	32701	32133	32760	32567	32673	
566	0	32741	31935	32807	31962	32675	
567	0	32756	32035	32616	32041	33159	
568	0	32826	32379	32613	32143	32998	
569	0	32729	32469	32767	32873	32767	
570	0	32756	32695	32738	34936	32761	
571	0	32775	32951	32775	35695	32669	
572	0	32821	33047	32795	33204	32688	
573	0	32877	33119	32744	31475	33047	
574	0	32794	33435	32753	31825	32959	
575	0	32835	33368	32704	33539	32801	
576	0	32762	33139	32681	35512	32743	
577	0	32737	32833	32698	34432	32871	
578	0	32692	32064	32736	33269	33041	
579	0	32616	31790	32647	31632	32952	
580	0	32729	31629	32641	31103	32945	
581	0	32784	31895	32608	31741	32537	
582	0	32775	32293	32658	32261	32681	
583	0	32764	32429	32623	32099	32871	
584	0	32845	32724	32669	31645	32694	
585	0	32860	33069	32611	31581	32799	
586	0	32877	32805	32719	32224	33019	
587	0	32902	32563	32748	33523	32967	
588	0	32896	32251	32812	33979	32807	
589	0	32886	32513	32793	34439	32743	
590	0	32787	32640	32799	33270	32898	
591	0	32775	32771	32775	32391	32775	
592	0	32725	32730	32775	32963	32851	
593	0	32802	32903	32775	33319	33047	
594	0	32804	32670	32797	32898	32835	
595	0	32749	32603	32788	33058	32579	
596	0	32731	32770	32791	31716	32689	
597	0	32686	32727	32749	30834	32848	
598	0	32775	32747	32765	30989	32961	
599	0	32812	32683	32770	32198	32791	
600	0	32792	33017	32708	33787	32679	
601	0	32784	32865	32694	34507	32455	
602	0	32765	32822	32703	33467	32910	
603	0	32728	32553	32669	32036	32991	
604	0	32717	32839	32737	30947	33223	
605	0	32722	32775	32711	32206	32946	
606	0	32696	32963	32795	33633	32594	
607	0	32712	32927	32745	34773	32642	
608	0	32758	33155	32774	36059	32845	
609	0	32838	32967	32723	33589	33069	
610	0	32815	32735	32795	31239	32957	
611	0	32793	32763	32727	31971	32751	
612	0	32800	32505	32727	31335	32886	
613	0	32833	32272	32757	31211	32820	
614	0	32736	32150	32775	33113	32627	
615	0	32681	32391	32767	34178	32715	
616	0	32699	32387	32669	33580	32839	
617	0	32803	32557	32635	33433	32915	
618	0	32873	32609	32601	34418	33068	
619	0	32944	32839	32715	35279	32630	
620	0	32861	32832	32739	34146	32967	
621	0	32825	33031	32688	31563	33085	
622	0	32775	32897	32717	30456	32847	
623	0	32760	32429	32643	30691	32758	
624	0	32704	32473	32681	31362	32470	
625	0	32724	32455	32755	32191	32775	
626	0	32768	32367	32711	32699	32765	
627	0	32717	32595	32739	32568	32827	
628	0	32736	32627	32720	32845	33007	
629	0	32751	32641	32735	32213	32961	
630	0	32754	32843	32721	31591	32902	
631	0	32771	32731	32735	31303	32875	
632	0	32804	32735	32711	31387	32839	
633	0	32804	32555	32743	31331	32891	
634	0	32760	32703	32720	31312	32495	
635	0	32754	32541	32771	31135	32751	
636	0	32650	32375	32761	32899	32895	
637	0	32804	32125	32813	35247	32805	
638	0	32846	32479	32773	36311	32827	
639	0	32932	32596	32769	34971	32863	
640	0	32771	32630	32757	34238	32765	
641	0	32713	32999	32720	35506	32793	
642	0	32833	33124	32687	36971	32820	
643	0	32912	33323	32707	35789	32811	
644	0	32924	33657	32723	32335	32825	
645	0	32965	33555	32677	29879	32973	
646	0	32912	33538	32683	30633	32943	
647	0	32834	33105	32735	31849	32923	
648	0	32690	32321	32722	32503	32805	
649	0	32690	31787	32731	31919	32903	
650	0	32804	31425	32589	32187	32805	
651	0	32855	31190	32801	32683	32671	
652	0	32895	31611	32795	32845	32723	
653	0	32775	32107	32802	31867	32935	
654	0	32685	32191	32741	31328	33051	
655	0	32654	32615	32826	31411	32953	
656	0	32707	32583	32761	31615	32711	
657	0	32750	32591	32742	32319	32801	
658	0	32744	32831	32791	33675	32634	
659	0	32832	32927	32755	34106	32623	
660	0	32829	32855	32711	33219	32739	
661	0	32784	33117	32733	32549	32905	
662	0	32735	33103	32702	32707	32569	
663	0	32770	32867	32711	32924	32770	
664	0	32720	32895	32775	33255	33076	
665	0	32829	32771	32735	33757	32775	
666	0	32752	32631	32775	33875	32995	
667	0	32676	32805	32595	33871	32850	
668	0	32690	32757	32747	32987	32657	
669	0	32774	32743	32653	31999	32727	
670	0	32718	32691	32675	32155	32991	
671	0	32691	32571	32763	32147	32886	
672	0	32736	32711	32763	31855	32623	
673	0	32757	32769	32771	31905	32555	
674	0	32730	32755	32601	31707	32965	
675	0	32819	32688	32775	31739	32979	
676	0	32812	32455	32761	31899	32995	
677	0	32855	32443	32720	32263	32977	
678	0	32802	32290	32739	32883	32967	
679	0	32846	32337	32627	33799	32934	
680	0	32845	32597	32749	33192	32730	
681	0	32845	32655	32806	32027	32865	
682	0	32853	32843	32719	32807	32775	
683	0	32812	33019	32751	34978	32704	
684	0	32817	32775	32694	34907	32903	
685	0	32824	33015	32775	34531	33037	
686	0	32787	32807	32734	34999	33023	
687	0	32749	32717	32734	34998	32881	
688	0	32798	32569	32733	35153	32795	
689	0	32766	32787	32747	34682	32587	
690	0	32748	32821	32794	32448	32619	
691	0	32750	32923	32739	30896	32935	
692	0	32755	32738	32711	29985	33120	
693	0	32720	32723	32757	30087	32855	
694	0	32680	32430	32711	31469	32731	
695	0	32701	32323	32736	31737	32800	
696	0	32713	32297	32775	31919	33127	
697	0	32744	32166	32772	31197	32855	
698	0	32770	32406	32729	31510	32852	
699	0	32797	32377	32807	31886	32882	
700	0	32768	32315	32707	31901	32675	
701	0	32800	32679	32702	31977	32928	
702	0	32882	32967	32679	31687	32907	
703	0	32891	33110	32607	32511	32581	
704	0	32793	32917	32594	33995	32775	
705	0	32730	33071	32627	35140	32895	
706	0	32720	32859	32605	36384	32794	
707	0	32713	32675	32671	35911	32838	
708	0	32733	32370	32775	34027	33007	
709	0	32787	32535	32798	32227	32863	
710	0	32848	32450	32749	32349	32729	
711	0	32902	32479	32707	31330	32931	
712	0	32796	32341	32706	30964	33006	
713	0	32873	32535	32726	31257	32919	
714	0	32733	32535	32789	31591	32882	
715	0	32802	32703	32758	32547	33090	
716	0	32813	32575	32753	33535	32813	
717	0	32722	32500	32807	34471	32632	
718	0	32740	32407	32775	35410	32647	
719	0	32793	32511	32667	35223	32855	
720	0	32826	32695	32623	34271	32775	
721	0	32818	32701	32620	32775	32775	
722	0	32815	32909	32611	31953	32751	
723	0	32765	32757	32699	31789	32955	
724	0	32630	32797	32745	32463	32827	
725	0	32605	32718	32771	33360	32820	
726	0	32628	32391	32725	33513	33112	
727	0	32731	32676	32775	32915	32750	
728	0	32966	32751	32708	32512	32749	
729	0	32898	33212	32705	32184	32967	
730	0	32775	33387	32760	31494	32815	
731	0	32716	33239	32786	30196	32967	
732	0	32764	33191	32775	30619	32961	
733	0	32793	32688	32763	32749	32677	
734	0	32775	32199	32738	33109	32809	
735	0	32804	31745	32711	32555	32831	
736	0	32804	31714	32619	31899	32662	
737	0	32842	31796	32547	32051	32802	
738	0	32850	32221	32595	32431	32915	
739	0	32889	32591	32676	32631	32983	
740	0	32880	32519	32687	32327	33095	
741	0	32813	32677	32746	32408	32743	
742	0	32710	32749	32749	32955	32731	
743	0	32628	33041	32751	33855	32711	
744	0	32740	32775	32767	33983	32919	
745	0	32675	32742	32817	32674	32977	
746	0	32720	32983	32775	33737	32737	
747	0	32809	32937	32791	35175	32910	
748	0	32869	33010	32765	33683	32899	
749	0	32802	32846	32677	31090	32775	
750	0	32810	32847	32732	30431	32647	
751	0	32775	33061	32671	32130	32811	
752	0	32817	32891	32711	33137	32775	
753	0	32832	32883	32766	31913	32809	
754	0	32788	32582	32753	32619	32987	
755	0	32760	32805	32762	35143	33086	
756	0	32746	32719	32743	37165	33063	
757	0	32702	32657	32763	35296	32825	
758	0	32715	32549	32748	32611	32775	
759	0	32761	32835	32801	30769	32555	
760	0	32763	32877	32643	30965	32943	
761	0	32834	32981	32682	31638	33065	
762	0	32816	32917	32677	32583	33113	
763	0	32718	32527	32639	33763	32463	
764	0	32705	32337	32647	33897	32183	
765	0	32745	31963	32626	33775	32985	
766	0	32711	31971	32606	33623	33179	
767	0	32735	31749	32619	32006	32993	
768	0	32775	32334	32581	30687	32903	
769	0	32820	32559	32618	31414	32827	
770	0	32906	32855	32565	32947	32855	
771	0	32961	32870	32579	34395	32831	
772	0	32910	33287	32560	33427	32927	
773	0	32944	33264	32743	32511	33007	
774	0	32995	33159	32738	31547	32992	
775	0	32903	33262	32775	31766	32890	
776	0	32890	32923	32746	32825	32815	
777	0	32937	32829	32687	33567	32883	
778	0	32954	32371	32680	32387	32822	
779	0	32998	31959	32717	31487	32807	
780	0	33005	31701	32711	33159	32689	
781	0	32979	31655	32656	35406	32683	
782	0	32981	31825	32633	33951	32812	
783	0	33005	32384	32629	31649	32967	
784	0	33082	32711	32646	31121	32967	
785	0	33019	33215	32795	31635	33071	
786	0	33030	33284	32732	32449	32750	
787	0	32927	33613	32757	33266	32795	
788	0	32868	33287	32754	34055	32937	
789	0	32775	32914	32711	34986	32937	
790	0	32722	32679	32769	35189	32879	
791	0	32530	32587	32739	34246	32902	
792	0	32442	32707	32793	33399	32877	
793	0	32386	32535	32822	31925	32819	
794	0	32257	32686	32800	31781	32767	
795	0	32232	32487	32837	31859	32791	
796	0	32322	32421	32867	31061	33037	
797	0	32337	32145	32907	31919	32960	
798	0	32353	32341	32967	32647	32934	
799	0	32390	32365	32935	31742	32594	
800	0	32442	32546	32775	30226	32725	
801	0	32483	32438	32809	29635	32771	
802	0	32528	32354	32768	31919	32914	
803	0	32537	31923	32733	33167	32960	
804	0	32437	31779	32822	33219	32576	
805	0	32464	31697	32919	33095	32613	
806	0	32650	32129	32917	33247	32907	
807	0	32717	32957	32809	33941	32957	
808	0	32775	33371	32775	34353	32835	
809	0	32750	33646	32775	31681	32923	
810	0	32809	33430	32767	31224	32736	
811	0	32861	32967	32743	33287	32695	
812	0	32962	32795	32723	34215	32805	
813	0	32914	32427	32726	34610	33128	
814	0	32946	32292	32697	34519	32899	
815	0	32919	32475	32655	33927	32703	
816	0	32905	32703	32642	33275	32770	
817	0	32965	33015	32661	32493	33059	
818	0	32987	32967	32619	32219	32988	
819	0	32944	33305	32635	32119	32542	
820	0	32986	33208	32615	31789	32635	
821	0	32939	33311	32641	31525	32653	
822	0	32992	33074	32669	31959	32723	
823	0	33040	32966	32702	32321	32706	
824	0	33005	32601	32684	32694	32624	
825	0	32972	32391	32741	32359	32703	
826	0	32917	32011	32685	32187	32973	
827	0	32775	31981	32717	32880	32850	
828	0	32706	32043	32753	33639	32706	
829	0	32704	32149	32775	34939	32819	
830	0	32816	32589	32723	34255	32921	
831	0	32763	32687	32617	32759	33083	
832	0	32736	32615	32631	31175	32745	
833	0	32652	32927	32653	30166	32583	
834	0	32694	32973	32638	31111	32909	
835	0	32746	33031	32663	32886	33078	
836	0	32751	32879	32627	34859	33030	
837	0	32676	33106	32635	35534	32981	
838	0	32746	33305	32642	35982	32953	
839	0	32775	33255	32615	36553	32826	
840	0	32813	33567	32651	35211	32821	
841	0	32802	33797	32621	31703	32740	
842	0	32816	33421	32596	30282	32879	
843	0	32820	32967	32615	31271	32930	
844	0	32770	32263	32731	31263	32837	
845	0	32768	32153	32833	30177	32751	
846	0	32758	31856	32706	30553	32966	
847	0	32825	31564	32775	30899	32775	
848	0	32809	31449	32759	32851	32750	
849	0	32775	31225	32775	34009	32775	
850	0	32792	31464	32749	34055	32698	
851	0	32879	32083	32703	32436	32853	
852	0	32873	32503	32775	32415	32911	
853	0	32744	32933	32775	31709	33049	
854	0	32715	32986	32720	31315	32867	
855	0	32708	33103	32671	32243	32731	
856	0	32786	33046	32647	34258	32751	
857	0	32790	33091	32614	35877	32738	
858	0	32868	32999	32571	36934	32865	
859	0	32908	33397	32612	33650	32925	
860	0	32853	33277	32627	30231	32816	
861	0	32849	33043	32569	30045	32873	
862	0	32775	32293	32565	32769	33032	
863	0	32807	32083	32615	33955	32630	
864	0	32730	31612	32574	34059	32849	
865	0	32784	31517	32615	34279	32865	
866	0	32804	31524	32619	33186	33113	
867	0	32743	31903	32683	31895	32887	
868	0	32738	32263	32738	31156	32555	
869	0	32722	32741	32669	31312	32679	
870	0	32739	32993	32637	31239	32775	
871	0	32806	33095	32608	31730	32807	
872	0	32774	33427	32630	32103	32795	
873	0	32736	33479	32647	32447	32617	
874	0	32757	33554	32611	32382	32755	
875	0	32746	33088	32619	32427	32903	
876	0	32744	33053	32571	32250	33202	
877	0	32773	32769	32584	32653	32697	
878	0	32829	32598	32591	33275	32525	
879	0	32738	32440	32583	34015	32637	
880	0	32744	32521	32608	35136	32895	
881	0	32766	32594	32607	35399	33037	
882	0	32868	32608	32579	33799	32899	
883	0	32770	32425	32583	32832	32859	
884	0	32737	32655	32517	32485	33069	
885	0	32826	32605	32637	33369	32953	
886	0	32901	32809	32635	33147	32873	
887	0	32852	32803	32631	32775	33021	
888	0	32792	33126	32617	32382	32987	
889	0	32782	33126	32630	31525	32999	
890	0	32755	33123	32610	31681	32941	
891	0	32748	32898	32615	31949	32975	
892	0	32769	32873	32622	32263	32726	
893	0	32801	32425	32591	32571	32603	
894	0	32752	32116	32683	32553	32746	
895	0	32827	31889	32737	32963	32775	
896	0	32824	31986	32791	31879	32846	
897	0	32786	32359	32763	31655	32997	
898	0	32730	32534	32739	31795	32859	
899	0	32772	32571	32761	32905	32812	
900	0	32773	32575	32775	33047	32945	
901	0	32716	32425	32735	34344	32832	
902	0	32708	32635	32698	36839	32651	
903	0	32718	32861	32711	37895	32603	
904	0	32740	33375	32741	36711	32793	
905	0	32755	33479	32770	32531	33101	
906	0	32774	33723	32802	30002	32726	
907	0	32824	34063	32737	29935	32837	
908	0	32817	33843	32605	29869	33157	
909	0	32799	33269	32684	30607	32707	
910	0	32772	32681	32732	31235	32627	
911	0	32775	31887	32824	30857	32765	
912	0	32803	31512	32815	31157	32771	
913	0	32839	31585	32751	31863	32656	
914	0	32812	31683	32801	34529	32822	
915	0	32850	31843	32754	35927	32450	
916	0	32817	31883	32711	35563	32839	
917	0	32813	31888	32765	34959	32912	
918	0	32774	32091	32796	33863	32599	
919	0	32756	32185	32771	31395	32733	
920	0	32865	32431	32729	29895	33063	
921	0	32862	32437	32632	30669	33011	
922	0	32815	32187	32551	31212	33081	
923	0	32830	32333	32549	32057	32942	
924	0	32741	32375	32577	32817	32758	
925	0	32812	32583	32597	31414	32946	
926	0	32770	32563	32639	31120	32923	
927	0	32829	32951	32587	32999	32773	
928	0	32805	32908	32705	34648	32775	
929	0	32848	32647	32701	35171	32754	
930	0	32805	32541	32731	35597	32914	
931	0	32833	32675	32791	35074	33023	
932	0	32784	33042	32756	34301	32959	
933	0	32770	33059	32775	33467	32583	
934	0	32712	33133	32799	33351	32805	
935	0	32719	32999	32819	32127	32703	
936	0	32709	33206	32825	31206	33035	
937	0	32698	33055	32751	31226	33077	
938	0	32713	32954	32633	32443	32807	
939	0	32775	32855	32715	32646	32886	
940	0	32799	32639	32711	32202	32879	
941	0	32758	32882	32713	32751	32935	
942	0	32793	32711	32711	32550	32699	
943	0	32741	32775	32693	32155	32755	
944	0	32679	32641	32751	32354	33301	
945	0	32736	32839	32731	32665	32623	
946	0	32755	32735	32753	32746	32165	
947	0	32728	32813	32751	32681	32595	
948	0	32770	32551	32743	32908	32937	
949	0	32812	32651	32759	32975	33039	
950	0	32821	32774	32757	32931	32915	
951	0	32801	32722	32769	32807	32898	
952	0	32775	32595	32613	32882	32936	
953	0	32833	32679	32583	32875	32966	
954	0	32804	32733	32583	32839	32897	
955	0	32839	32631	32658	32647	33175	
956	0	32760	32493	32703	32483	32946	
957	0	32763	32745	32634	32377	32797	
958	0	32758	32643	32725	32485	32795	
959	0	32801	32603	32761	32989	33147	
960	0	32754	32647	32802	33151	32611	
961	0	32731	32578	32773	33549	32531	
962	0	32804	32559	32825	34324	32679	
963	0	32790	32677	32647	34251	32647	
964	0	32808	32618	32694	33581	32788	
965	0	32839	32727	32739	33473	33063	
966	0	32775	32727	32825	32617	33072	
967	0	32789	32583	32803	31623	32790	
968	0	32736	32831	32819	30898	32820	
969	0	32775	32647	32775	30911	32967	
970	0	32752	32615	32763	30835	33021	
971	0	32733	32335	32691	31878	32889	
972	0	32762	32237	32667	32047	32685	
973	0	32775	32428	32661	32775	32912	
974	0	32762	32553	32735	34522	32903	
975	0	32836	32627	32793	35819	32833	
976	0	32838	32839	32735	34747	32785	
977	0	32772	32775	32725	32932	32953	
978	0	32748	32775	32746	31305	32949	
979	0	32816	32826	32775	31715	32937	
980	0	32848	32643	32711	32543	33106	
981	0	32809	32577	32735	33788	32871	
982	0	32882	32421	32637	34275	32802	
983	0	32840	32499	32706	33799	33016	
984	0	32821	32381	32667	33241	32903	
985	0	32774	32477	32706	32263	32941	
986	0	32775	32459	32757	31111	32834	
987	0	32775	32690	32762	32159	32839	
988	0	32805	32805	32795	33677	33071	
989	0	32775	32919	32769	33447	33154	
990	0	32748	32574	32723	32937	33259	
991	0	32763	32575	32807	32926	32923	
992	0	32690	32795	32765	33124	32503	
993	0	32653	32679	32793	33095	32557	
994	0	32765	32545	32821	32443	32927	
995	0	32832	32399	32797	31033	32807	
996	0	32770	32711	32722	30334	32967	
997	0	32744	32635	32624	29884	32815	
998	0	32775	32583	32732	30655	32867	
999	0	32751	32551	32758	32685	32989	
1000	0	32734	32804	32663	34669	33029	
1001	0	32681	32839	32678	34951	32826	
1002	0	32770	32955	32623	35213	32263	
1003	0	32800	32691	32583	35019	32532	
1004	0	32838	32821	32642	34905	32821	
1005	0	32775	32751	32726	34019	32792	
1006	0	32744	32680	32822	31728	32895	
1007	0	32775	32871	32805	30583	32807	
1008	0	32816	32801	32829	30383	32933	
1009	0	32774	32987	32739	31831	32887	
1010	0	32786	32639	32767	32516	32818	
1011	0	32797	32451	32738	32981	32803	
1012	0	32804	32361	32771	33287	32774	
1013	0	32775	32121	32775	35551	32743	
1014	0	32738	32198	32831	34261	32807	
1015	0	32752	32178	32789	33477	32946	
1016	0	32793	32191	32816	32263	33011	
1017	0	32766	32177	32818	30068	32914	
1018	0	32685	32348	32654	29815	32999	
1019	0	32693	32381	32807	29339	32935	
1020	0	32595	32318	32763	30029	32945	
1021	0	32622	32627	32786	32081	32843	
1022	0	32725	32662	32775	33777	32775	
1023	0	32733	32863	32693	35983	32754	
1024	0	32827	32667	32673	36702	32722	
1025	0	32763	33003	32689	35381	32711	
1026	0	32805	33271	32639	32919	32823	
1027	0	32805	33344	32571	32161	32999	
1028	0	32805	33123	32646	32475	32937	
1029	0	32818	33029	32637	30786	32953	
1030	0	32805	32979	32678	30471	32871	
1031	0	32812	32775	32700	33018	32514	
1032	0	32804	32727	32691	35831	32787	
1033	0	32801	32447	32761	38011	33011	
1034	0	32839	32579	32805	36613	32432	
1035	0	32985	32495	32803	32999	32731	
1036	0	32933	32575	32731	31169	32979	
1037	0	32912	32429	32683	31027	32887	
1038	0	32870	32598	32671	30769	32818	
1039	0	32902	32831	32691	31659	32876	
1040	0	32805	32753	32735	32207	32711	
1041	0	32712	32775	32743	31648	32922	
1042	0	32664	32647	32775	31385	33025	
1043	0	32678	32447	32697	31513	33061	
1044	0	32740	32485	32637	33084	32976	
1045	0	32711	32297	32643	34368	32538	
1046	0	32784	32321	32653	34463	32415	
1047	0	32796	32101	32632	33341	32791	
1048	0	32775	32412	32623	32082	33025	
1049	0	32702	32707	32609	31507	32815	
1050	0	32692	32845	32647	30985	32570	
1051	0	32676	32888	32677	29327	32775	
1052	0	32706	32819	32655	28423	32658	
1053	0	32755	32937	32629	29421	32935	
1054	0	32762	32694	32683	30667	33127	
1055	0	32728	32615	32674	33951	33030	
1056	0	32800	32461	32667	38471	32665	
1057	0	32770	32855	32731	39775	32765	
1058	0	32801	33061	32689	38751	32896	
1059	0	32834	33431	32635	36093	32767	
1060	0	32832	33159	32568	33511	32722	
1061	0	32775	33007	32603	30496	32898	
1062	0	32840	32722	32627	30455	33115	
1063	0	32870	32683	32723	31127	32699	
1064	0	32869	32511	32769	31693	32770	
1065	0	32843	32527	32775	31025	32946	
1066	0	32758	32293	32885	35081	32992	
1067	0	32722	32442	32773	37715	32855	
1068	0	32724	32509	32765	35789	32839	
1069	0	32720	32883	32775	32955	32916	
1070	0	32837	33101	32799	30569	32879	
1071	0	32809	33539	32730	29304	32749	
1072	0	32908	33382	32765	27584	32982	
1073	0	32809	33351	32625	27994	33037	
1074	0	32868	33039	32722	30122	33014	
1075	0	32724	32613	32711	30663	33119	
1076	0	32717	32155	32710	31847	32731	
1077	0	32816	31741	32583	34244	32646	
1078	0	32816	31715	32615	37107	32852	
1079	0	32796	31890	32582	38387	32833	
1080	0	32759	32043	32552	36589	32767	
1081	0	32816	32263	32541	35450	32967	
1082	0	32812	32627	32619	31667	33275	
1083	0	32886	32794	32577	30838	32967	
1084	0	32928	32761	32649	30669	32603	
1085	0	32812	32169	32669	30816	32743	
1086	0	32698	31840	32669	29383	32659	
1087	0	32686	31231	32616	28759	32711	
1088	0	32722	30711	32594	31331	32693	
1089	0	32731	30459	32600	35533	32729	
1090	0	32824	30806	32592	38528	32700	
1091	0	32832	31915	32619	41330	32881	
1092	0	32899	32775	32664	37519	32852	
1093	0	32880	33391	32689	32903	32722	
1094	0	32832	33554	32719	28785	32756	
1095	0	32805	33711	32775	28855	32791	
1096	0	32759	33759	32763	30087	33175	
1097	0	32717	33563	32799	31123	32751	
1098	0	32690	33543	32719	31042	32611	
1099	0	32675	33255	32761	31078	32711	
1100	0	32847	33280	32813	31847	32485	
1101	0	32927	33243	32726	32243	32703	
1102	0	32703	33147	32619	32703	32849	
1103	0	32569	33074	32581	33426	32881	
1104	0	32658	33095	32681	33651	33083	
1105	0	32681	32962	32767	32642	32951	
1106	0	32797	32775	32795	32028	33023	
1107	0	32801	32909	32736	31382	32943	
1108	0	32840	33014	32677	32243	32432	
1109	0	32858	32909	32711	33031	32944	
1110	0	32610	32933	32621	33986	33237	
1111	0	32578	32763	32583	33374	32915	
1112	0	32605	32659	32825	31315	32775	
1113	0	32640	32391	32760	30679	32670	
1114	0	32720	32575	32703	30621	33043	
1115	0	32828	32813	32734	29675	33063	
1116	0	32890	32523	32707	30605	32997	
1117	0	32992	32459	32711	34797	32832	
1118	0	32988	32504	32755	39917	32752	
1119	0	32943	32655	32738	43433	32835	
1120	0	32829	33191	32729	41763	32874	
1121	0	32845	33135	32730	37047	32963	
1122	0	32765	33425	32702	34823	33075	
1123	0	32726	33127	32745	30501	32869	
1124	0	32722	33011	32711	28628	32647	
1125	0	32761	32639	32774	28059	32711	
1126	0	32921	32445	32709	28265	32775	
1127	0	32954	32327	32722	30593	32851	
1128	0	32839	32391	32709	31903	33059	
1129	0	32767	32771	32690	33513	32690	
1130	0	32745	32819	32633	33170	32576	
1131	0	32694	32647	32699	30951	32863	
1132	0	32681	32427	32775	30413	32923	
1133	0	32804	32357	32800	30167	32946	
1134	0	32861	32005	32809	30007	33009	
1135	0	32829	32021	32807	31519	32775	
1136	0	32840	32111	32754	32749	32902	
1137	0	32717	32193	32795	32861	32935	
1138	0	32630	31975	32762	32493	32834	
1139	0	32617	31986	32719	32611	32859	
1140	0	32746	31955	32679	35026	32775	
1141	0	32650	32555	32647	35037	32775	
1142	0	32725	33018	32601	32448	32751	
1143	0	32720	33855	32740	31992	32808	
1144	0	32785	34183	32775	33589	32787	
1145	0	32801	34634	32827	34031	33079	
1146	0	32736	34194	32874	36151	32950	
1147	0	32775	33565	32931	36801	32831	
1148	0	32828	32452	32856	34527	32787	
1149	0	32800	31438	32647	31953	32720	
1150	0	32724	30349	32451	30616	32647	
1151	0	32851	29766	32541	30343	32853	
1152	0	32899	29938	32621	29727	32560	
1153	0	32850	30637	32674	30375	33245	
1154	0	32904	31537	32709	31667	33483	
1155	0	32820	32261	32711	34217	32985	
1156	0	32941	32535	32706	35525	32626	
1157	0	32967	32647	32635	34181	32887	
1158	0	32805	32874	32590	33183	32837	
1159	0	32754	33251	32637	33299	32217	
1160	0	32834	33395	32663	32665	32617	
1161	0	32751	33572	32659	33355	33005	
1162	0	32718	33543	32639	33574	32935	
1163	0	32688	33926	32666	34601	32928	
1164	0	32701	33699	32726	33711	32774	
1165	0	32734	33499	32705	31509	32927	
1166	0	32690	32894	32722	30543	32723	
1167	0	32729	32732	32705	30066	32881	
1168	0	32746	32527	32673	29941	32567	
1169	0	32701	32261	32713	29530	32636	
1170	0	32705	32619	32684	32249	32807	
1171	0	32770	32626	32641	36266	32967	
1172	0	32747	32809	32637	38590	32898	
1173	0	32784	32799	32711	35094	32339	
1174	0	32773	33197	32698	33927	32741	
1175	0	32857	33251	32775	33407	32978	
1176	0	32784	33477	32762	32131	32899	
1177	0	32768	33110	32678	30380	33083	
1178	0	32781	33263	32565	30193	32711	
1179	0	32722	33190	32594	32217	32809	
1180	0	32756	33366	32630	33570	32775	
1181	0	32892	33241	32701	33513	32912	
1182	0	32870	32983	32755	33839	32527	
1183	0	32813	32491	32739	32626	32721	
1184	0	32827	31887	32813	30643	32907	
1185	0	32820	31506	32811	31040	32574	
1186	0	32932	31261	32801	30403	32775	
1187	0	32863	31531	32789	29455	33051	
1188	0	32741	31703	32755	32228	32967	
1189	0	32674	31975	32582	33171	32635	
1190	0	32630	32166	32625	31303	32930	
1191	0	32596	32711	32587	33347	32975	
1192	0	32647	33227	32661	35813	32767	
1193	0	32682	33487	32733	36388	32862	
1194	0	32745	33556	32736	39472	32849	
1195	0	32749	33394	32707	36503	32727	
1196	0	32732	33047	32753	33661	32955	
1197	0	32846	33427	32742	30879	32903	
1198	0	32804	33702	32727	26932	32789	
1199	0	32878	34375	32731	30823	33067	
1200	0	32816	34759	32793	33406	33115	
1201	0	32671	34608	32755	34557	32719	
1202	0	32674	33755	32799	35673	32738	
1203	0	32712	31981	32750	36562	33312	
1204	0	32754	30303	32823	36007	32679	
1205	0	32756	28967	32739	32635	32750	
1206	0	32869	28627	32683	30075	33095	
1207	0	32922	29262	32745	29087	33314	
1208	0	32912	30570	32796	28687	33018	
1209	0	32920	31686	32759	28899	32634	
1210	0	32933	32194	32703	29771	33115	
1211	0	32910	32621	32676	32192	32707	
1212	0	32836	32551	32741	33601	32559	
1213	0	32746	32743	32546	32082	32694	
1214	0	32764	33439	32541	32199	32391	
1215	0	32829	34068	32569	34064	32531	
1216	0	32770	34937	32629	34345	33032	
1217	0	32665	35430	32745	32231	32813	
1218	0	32651	34795	32805	32307	32894	
1219	0	32614	33825	32799	32521	32947	
1220	0	32669	32199	32902	32546	32615	
1221	0	32662	30919	32843	33061	32257	
1222	0	32772	30362	32837	34215	32996	
1223	0	32818	30575	32775	36642	33405	
1224	0	32784	31449	32696	37343	33733	
1225	0	32860	32421	32731	34082	33161	
1226	0	32893	33286	32765	31711	32933	
1227	0	32800	33615	32799	32431	32839	
1228	0	32868	33955	32835	31783	32846	
1229	0	32888	33903	32827	31299	32722	
1230	0	32772	33688	32820	32166	32998	
1231	0	32762	33048	32863	32690	33326	
1232	0	32736	32349	32812	32931	32903	
1233	0	32740	31640	32667	34069	32831	
1234	0	32823	31675	32568	33273	33241	
1235	0	32850	32037	32656	31539	32831	
1236	0	32920	32256	32647	30435	32579	
1237	0	32805	32607	32671	30390	32881	
1238	0	32813	32664	32611	31703	33055	
1239	0	32738	33239	32675	32669	32601	
1240	0	32690	33415	32702	34439	32849	
1241	0	32650	33722	32860	37285	32859	
1242	0	32618	33938	32944	35655	33015	
1243	0	32682	33522	32893	29559	33138	
1244	0	32748	33366	32719	25867	33023	
1245	0	32789	32775	32553	26330	32839	
1246	0	32794	32341	32577	31021	32877	
1247	0	32760	31903	32752	36774	32925	
1248	0	32760	32236	32806	40595	32920	
1249	0	32775	32605	32775	42211	32576	
1250	0	32730	32801	32725	37853	32503	
1251	0	32861	32935	32775	34556	32766	
1252	0	32705	32825	32766	32452	32667	
1253	0	32748	33104	32813	28911	32745	
1254	0	32718	33119	32775	27701	32822	
1255	0	32666	33053	32767	28563	32709	
1256	0	32760	32711	32774	28771	33033	
1257	0	32793	32589	32735	30013	33040	
1258	0	32768	32371	32770	33519	32853	
1259	0	32852	31993	32787	34468	32923	
1260	0	32869	31680	32839	34735	32921	
1261	0	32870	31903	32775	36461	33138	
1262	0	32842	32377	32793	36064	32391	
1263	0	32812	32473	32837	33603	32459	
1264	0	32774	32551	32771	30295	32921	
1265	0	32793	32597	32735	30623	32825	
1266	0	32813	32167	32719	33382	32725	
1267	0	32857	31813	32775	33795	32391	
1268	0	32815	32573	32809	32651	32793	
1269	0	32747	33235	32767	29713	33053	
1270	0	32676	33927	32793	29910	33001	
1271	0	32677	34435	32710	28916	33033	
1272	0	32683	34437	32712	31683	33219	
1273	0	32719	34151	32765	32343	32957	
1274	0	32809	33251	32787	32927	32900	
1275	0	32863	32289	32682	37158	32818	
1276	0	32944	30847	32748	39477	32539	
1277	0	32902	30028	32795	36390	33073	
1278	0	32916	29753	32731	32452	33275	
1279	0	32952	29818	32705	34179	32882	
1280	0	32907	30951	32694	32792	32613	
1281	0	32728	32395	32713	28214	33245	
1282	0	32784	33200	32719	26470	32541	
1283	0	32788	33543	32751	29391	32711	
1284	0	32666	33877	32717	30775	33131	
1285	0	32551	33652	32775	31559	32941	
1286	0	32617	33467	32775	34672	32693	
1287	0	32679	32871	32698	38827	32850	
1288	0	32648	32578	32685	38141	32289	
1289	0	32552	32335	32735	35847	32607	
1290	0	32540	32700	32794	31698	32995	
1291	0	32526	33301	32849	24523	32774	
1292	0	32696	34560	32790	28741	33175	
1293	0	32868	35943	32800	35424	33074	
1294	0	32842	35984	32785	33119	32967	
1295	0	32903	35490	32775	30801	32787	
1296	0	32890	34274	32760	26954	32583	
1297	0	32704	33758	32764	25185	32945	
1298	0	32741	33725	32736	33680	33181	
1299	0	32732	33796	32752	39812	32927	
1300	0	32813	33024	32720	41927	32808	
1301	0	32962	31789	32737	44359	32864	
1302	0	33061	29822	32797	41094	32835	
1303	0	32969	28061	32801	37040	32647	
1304	0	32896	27143	32690	32069	32651	
1305	0	32884	27361	32671	31539	33085	
1306	0	32918	28287	32661	27867	33091	
1307	0	32860	29239	32501	25117	33045	
1308	0	32963	30191	32421	24918	32527	
1309	0	32988	30800	32479	26065	32515	
1310	0	32952	31730	32673	31401	32919	
1311	0	33099	32606	32727	34978	32785	
1312	0	33014	33406	32681	38309	32766	
1313	0	32790	34095	32717	40384	32895	
1314	0	32592	34290	32665	35719	32954	
1315	0	32549	34471	32795	30431	32775	
1316	0	32552	34151	32914	27783	33013	
1317	0	32499	34121	32979	28951	33527	
1318	0	32587	33879	32787	31879	32619	
1319	0	32594	34015	32455	33935	32771	
1320	0	32608	33959	32276	33631	32478	
1321	0	32682	34047	32395	33967	32991	
1322	0	32819	33923	32661	33741	32709	
1323	0	32775	33347	32843	32064	32669	
1324	0	32685	33059	32851	31449	32703	
1325	0	32758	33107	32815	33123	32847	
1326	0	32740	33062	32877	33759	32885	
1327	0	32733	33247	32919	32809	32774	
1328	0	32759	33057	32914	32658	32923	
1329	0	32718	33191	32843	32260	32797	
1330	0	32742	32997	32687	31687	32711	
1331	0	32775	32757	32557	31195	32762	
1332	0	32705	32787	32478	30783	33315	
1333	0	32789	32759	32561	32113	33259	
1334	0	32757	33159	32530	31619	32609	
1335	0	32696	33083	32425	31059	32647	
1336	0	32679	33079	32415	31614	32726	
1337	0	32764	33287	32474	33657	33119	
1338	0	32792	32961	32663	35271	33319	
1339	0	32704	32659	32755	33312	32989	
1340	0	32744	32615	32863	34215	32755	
1341	0	32728	32419	32876	36423	32720	
1342	0	32775	32406	32847	37181	32455	
1343	0	32809	32071	32799	37149	31916	
1344	0	32792	31827	32823	34598	32261	
1345	0	32832	32112	32851	32381	32997	
1346	0	32905	32426	32877	34646	32827	
1347	0	33026	32533	32785	30125	32621	
1348	0	32998	32766	32651	26869	33479	
1349	0	32785	33381	32670	30580	33456	
1350	0	32853	33339	32626	34328	33051	
1351	0	32809	33477	32699	34375	32748	
1352	0	32909	34219	32759	32263	32664	
1353	0	32868	34711	32821	30928	32827	
1354	0	32750	34650	32737	29801	32775	
1355	0	32694	33519	32711	27521	32849	
1356	0	32684	31891	32703	30296	33351	
1357	0	32723	30717	32756	32308	33026	
1358	0	32832	30215	32705	33690	32577	
1359	0	32820	30806	32599	34569	32839	
1360	0	32821	32018	32576	36551	32929	
1361	0	32680	32449	32707	39848	32636	
1362	0	32658	31445	32775	40647	32533	
1363	0	32709	30363	32875	33722	33069	
1364	0	32891	29778	32722	29085	33186	
1365	0	33127	29950	32680	29523	33223	
1366	0	33043	30769	32675	31212	32760	
1367	0	32945	31799	32705	32509	32377	
1368	0	32886	32339	32758	31209	33095	
1369	0	32762	32951	32825	31339	32725	
1370	0	32626	33495	32736	32605	33107	
1371	0	32696	33461	32688	32725	33119	
1372	0	32703	33388	32686	30383	32703	
1373	0	32691	33759	32807	29338	33175	
1374	0	32740	33789	32741	31793	32917	
1375	0	32702	33863	32761	34171	32691	
1376	0	32736	34091	32711	34514	33007	
1377	0	32730	33951	32722	34514	32573	
1378	0	32717	34009	32755	34753	32375	
1379	0	32658	33746	32797	33499	32217	
1380	0	32564	33655	32603	31943	32903	
1381	0	32545	34117	32579	31426	33479	
1382	0	32644	33830	32601	33917	33283	
1383	0	32631	33724	32772	33583	32979	
1384	0	32740	33466	32791	31106	32809	
1385	0	32805	32745	32791	31611	32875	
1386	0	32871	32214	32807	31555	32687	
1387	0	32860	31625	32719	30358	32605	
1388	0	32853	31020	32734	32903	33212	
1389	0	32873	30977	32815	36058	33235	
1390	0	32968	31470	32802	36194	33088	
1391	0	32976	32275	32763	35290	32879	
1392	0	32896	32359	32775	31727	32663	
1393	0	32758	32370	32798	33345	32749	
1394	0	32787	32306	32751	35616	32671	
1395	0	32787	32801	32825	36795	32865	
1396	0	32896	32799	32845	35433	32673	
1397	0	32787	32868	32851	33687	32762	
1398	0	32882	32793	32799	29213	33055	
1399	0	32895	32525	32691	26260	33087	
1400	0	32796	32429	32681	25820	32927	
1401	0	32812	32903	32667	26797	33037	
1402	0	32652	34261	32630	28270	33063	
1403	0	32688	35250	32679	32407	32952	
1404	0	32699	35783	32602	39412	32728	
1405	0	32765	35321	32647	36829	32614	
1406	0	32673	33717	32809	34178	32839	
1407	0	32708	31451	32881	34123	32818	
1408	0	32811	28963	32667	35248	32522	
1409	0	33005	27737	32655	33975	32698	
1410	0	33112	27483	32571	32663	32771	
1411	0	33087	28636	32583	33109	33007	
1412	0	32768	30401	32638	31223	33111	
1413	0	32654	31811	32791	28741	33177	
1414	0	32632	33414	32791	28955	32792	
1415	0	32660	33977	32723	31185	32067	
1416	0	32631	33773	32791	33621	32295	
1417	0	32632	32485	32804	38715	32861	
1418	0	32790	32166	32869	41677	32883	
1419	0	32832	32181	32699	37963	32883	
1420	0	32848	32675	32605	34137	33001	
1421	0	32976	33234	32612	30671	32731	
1422	0	32952	33283	32592	28197	33218	
1423	0	32748	33456	32673	27433	33247	
1424	0	32658	33299	32719	26690	33355	
1425	0	32553	33153	32813	28739	33735	
1426	0	32640	33287	32813	33751	33597	
1427	0	32769	33442	32749	35955	32802	
1428	0	32696	33740	32734	35335	31826	
1429	0	32592	34037	32708	39239	31968	
1430	0	32775	34091	32696	40641	31354	
1431	0	32755	34190	32663	34836	32025	
1432	0	32821	34119	32631	29703	32659	
1433	0	32724	33693	32628	34247	32594	
1434	0	32785	33611	32565	36971	32686	
1435	0	32774	33302	32601	30842	33047	
1436	0	32858	33089	32656	23058	33223	
1437	0	32888	32955	32677	21321	32949	
1438	0	32900	32094	32758	30685	33088	
1439	0	32718	31239	32877	33722	33095	
1440	0	32711	31257	32839	32983	32959	
1441	0	32707	31436	32773	34346	32770	
1442	0	32973	31687	32721	36231	32869	
1443	0	32907	32775	32742	35975	32831	
1444	0	32991	33357	32743	34009	32948	
1445	0	32973	33213	32731	28953	32906	
1446	0	32717	33329	32760	28221	33007	
1447	0	32706	32876	32610	30649	32955	
1448	0	32737	32292	32545	33975	32967	
1449	0	32708	32016	32599	35113	32847	
1450	0	32442	31568	32641	30585	32848	
1451	0	32521	31926	32743	29069	32675	
1452	0	32664	32757	32717	34272	32654	
1453	0	32680	32915	32758	34735	32767	
1454	0	32816	32999	32811	35527	32578	
1455	0	32688	33071	32660	42834	32660	
1456	0	32740	33319	32744	46978	32502	
1457	0	32875	33581	32775	42834	32681	
1458	0	32847	33684	32643	34095	32816	
1459	0	32730	33251	32632	27919	32971	
1460	0	32775	32926	32670	26868	32997	
1461	0	32844	32603	32738	28595	32973	
1462	0	32904	32373	32705	31813	32857	
1463	0	32904	32161	32775	29273	32927	
1464	0	32967	31791	32743	27782	32687	
1465	0	32946	31559	32598	24717	32495	
1466	0	33006	31221	32603	21109	32587	
1467	0	32914	31221	32651	23643	33323	
1468	0	32928	31815	32694	26119	33269	
1469	0	32912	32690	32723	26082	32883	
1470	0	32978	33366	32719	29341	32887	
1471	0	32971	34075	32651	34863	33140	
1472	0	32914	34322	32604	40341	32571	
1473	0	32833	34362	32559	39209	32227	
1474	0	32785	35254	32526	40097	31792	
1475	0	32928	36212	32716	41520	32419	
1476	0	33030	36999	32690	43399	33159	
1477	0	33044	36585	32775	46015	33331	
1478	0	33007	33280	32804	46400	33323	
1479	0	33095	28984	32846	40981	33455	
1480	0	33053	25269	32709	34819	32373	
1481	0	32997	24421	32862	27481	32056	
1482	0	32912	25989	32842	22682	32567	
1483	0	32746	28215	32702	21602	32775	
1484	0	32464	30423	32594	23755	32891	
1485	0	32416	32007	32707	27241	33033	
1486	0	32250	32986	32821	29271	33172	
1487	0	32097	33201	32813	30547	33168	
1488	0	32000	33543	32835	31909	33041	
1489	0	31968	33117	32807	32743	32837	
1490	0	32110	32655	32907	33431	32845	
1491	0	32284	32514	32903	35327	33019	
1492	0	32348	32925	32903	36055	32951	
1493	0	32379	33603	32870	36135	32927	
1494	0	32466	34587	32847	35178	32771	
1495	0	32421	35069	32809	36305	32591	
1496	0	32504	35378	32839	35880	32583	
1497	0	32512	36188	32795	29757	32760	
1498	0	32545	36223	32792	21170	32891	
1499	0	32560	35581	32775	20039	32891	
1500	0	32775	33696	32736	29837	32984	
1501	0	32836	31863	32797	34598	32994	
1502	0	33116	30319	32609	35695	33161	
1503	0	33274	29840	32593	34157	32839	
1504	0	33285	30774	32526	35230	32911	
1505	0	33251	31533	32642	34936	32955	
1506	0	32944	31797	32728	34424	32725	
1507	0	32855	31926	32627	35381	32186	
1508	0	32890	32360	32600	38983	32524	
1509	0	32950	32791	32573	40391	32707	
1510	0	33099	33161	32611	36999	32583	
1511	0	33176	33762	32632	35074	32874	
1512	0	33165	34115	32570	36371	32986	
1513	0	33128	34131	32551	38914	32898	
1514	0	32875	34176	32602	32702	32855	
1515	0	32570	33847	32696	25659	33003	
1516	0	32551	33035	32635	24550	32954	
1517	0	32518	32743	32680	25319	32647	
1518	0	32696	32731	32739	29771	32741	
1519	0	32715	32569	32787	29007	32936	
1520	0	32729	32917	32790	27169	33018	
1521	0	32837	33229	32775	27437	33020	
1522	0	32981	33953	32861	31654	33012	
1523	0	32868	34123	32767	32809	32855	
1524	0	32854	34034	32805	32601	32549	
1525	0	32888	34021	32839	34439	32487	
1526	0	32799	33437	32899	37575	32461	
1527	0	32827	32769	32759	39512	33069	
1528	0	32848	31650	32615	36973	32813	
1529	0	32760	31215	32651	33039	33052	
1530	0	32905	30933	32654	32353	32509	
1531	0	32888	31415	32790	34221	32599	
1532	0	32980	32835	32849	33008	33103	
1533	0	33128	34000	32731	33116	32918	
1534	0	33014	33927	32692	32701	32923	
1535	0	32905	33685	32659	32421	32852	
1536	0	32775	32281	32598	31194	32756	
1537	0	32761	30362	32553	29771	32635	
1538	0	32696	28487	32638	30493	32775	
1539	0	32755	27693	32765	33655	32784	
1540	0	32813	28615	32602	35547	32790	
1541	0	32669	30407	32549	37604	33104	
1542	0	32612	31928	32713	40269	32767	
1543	0	32730	32763	32809	44319	32175	
1544	0	32728	32501	32775	39797	32825	
1545	0	33038	31691	32899	35677	32997	
1546	0	33162	30869	32940	24365	32696	
1547	0	32979	31511	32962	18507	32525	
1548	0	32869	32495	32815	18472	32932	
1549	0	32667	33357	32688	21075	33122	
1550	0	32699	34471	32740	30818	33336	
1551	0	32739	35110	32851	37569	32534	
1552	0	32805	36176	32837	37099	32706	
1553	0	32856	36135	32801	35034	33058	
1554	0	32797	35079	32727	33543	32973	
1555	0	32679	33645	32651	35063	33526	
1556	0	32729	32324	32675	33208	32728	
1557	0	32737	31908	32731	30625	32023	
1558	0	32802	32206	32647	34155	33421	
1559	0	32763	32805	32812	38385	33689	
1560	0	32646	33091	32823	38392	31385	
1561	0	32713	32635	32769	30035	32333	
1562	0	32698	32425	32775	25158	32351	
1563	0	32656	32806	32766	23726	32645	
1564	0	32624	33007	32775	24899	33031	
1565	0	32697	33286	32667	30183	32630	
1566	0	32681	33402	32680	38633	32752	
1567	0	32740	33490	32645	42963	32992	
1568	0	32869	33363	32591	44905	32775	
1569	0	32914	32979	32711	39477	32770	
1570	0	32928	32534	32710	32337	33019	
1571	0	33059	31910	32775	29717	33087	
1572	0	32957	31525	32739	31805	33024	
1573	0	32820	31175	32697	35151	32720	
1574	0	32873	31445	32726	33497	32909	
1575	0	32827	31802	32799	30767	33067	
1576	0	32809	32377	32829	29247	32859	
1577	0	32771	32489	32647	27726	32557	
1578	0	32775	32771	32541	26793	32949	
1579	0	32691	33191	32601	28107	32821	
1580	0	32574	33428	32697	33655	32694	
1581	0	32472	33647	32736	37797	32787	
1582	0	32443	33631	32716	38855	32556	
1583	0	32602	33325	32689	39038	32793	
1584	0	32684	33168	32687	34433	33415	
1585	0	32667	33357	32775	29511	32855	
1586	0	32674	33575	32669	25451	32908	
1587	0	32693	33436	32667	28450	33209	
1588	0	32652	34061	32768	32013	33049	
1589	0	32775	34103	32805	36403	32518	
1590	0	32832	33618	32847	35059	32659	
1591	0	32847	32787	32807	34482	32524	
1592	0	32927	32056	32722	37505	32609	
1593	0	32936	31785	32665	38057	32731	
1594	0	33004	31751	32653	37383	32615	
1595	0	33125	31687	32739	34387	33085	
1596	0	32992	31696	32756	28008	33170	
1597	0	33014	30738	32573	21789	32797	
1598	0	32948	29387	32607	22398	32671	
1599	0	32915	29212	32607	29315	32752	
1600	0	32851	30113	32807	34299	32535	
1601	0	32818	31161	32773	34247	33093	
1602	0	32632	31967	32791	32005	33095	
1603	0	32600	32817	32790	33415	32260	
1604	0	32709	33274	32839	37255	32333	
1605	0	32740	33309	32608	35590	32937	
1606	0	32816	33841	32753	33187	33082	
1607	0	32792	34823	32799	33458	32859	
1608	0	32635	34898	32839	32579	32899	
1609	0	32632	33733	32791	30601	32767	
1610	0	32524	32805	32835	28281	33061	
1611	0	32607	32295	32881	28425	33103	
1612	0	32608	32281	32711	28662	32967	
1613	0	32726	32543	32700	31909	32879	
1614	0	32690	32581	32711	34907	32722	
1615	0	32576	32402	32831	37571	32576	
1616	0	32549	32468	32721	38457	32726	
1617	0	32713	33393	32711	37751	32791	
1618	0	32775	33955	32727	37087	32671	
1619	0	32818	34006	32667	35410	32478	
1620	0	32784	33833	32681	33266	32484	
1621	0	32848	32671	32755	32479	32759	
1622	0	33006	31716	32706	36660	32986	
1623	0	33042	30696	32722	37059	33165	
1624	0	32996	30815	32763	33558	32997	
1625	0	32787	31672	32673	31921	32835	
1626	0	32774	32741	32637	31743	33136	
1627	0	32688	33059	32599	29965	33457	
1628	0	32680	33081	32789	28350	33095	
1629	0	32714	32947	32785	27755	32949	
1630	0	32741	33003	32729	28779	32754	
1631	0	32673	32531	32759	32656	32120	
1632	0	32674	32492	32658	37217	32259	
1633	0	32802	32336	32598	36677	32505	
1634	0	32936	32557	32575	33155	32515	
1635	0	32907	32989	32711	32007	32799	
1636	0	32912	33137	32749	30999	33001	
1637	0	32796	33451	32799	29831	32735	
1638	0	32660	33678	32711	28135	32349	
1639	0	32528	34054	32733	29378	33147	
1640	0	32509	33782	32733	37251	32842	
1641	0	32632	33951	32775	40063	32765	
1642	0	32877	34280	32815	34736	33106	
1643	0	33040	34354	32711	28261	32797	
1644	0	32978	34183	32610	24735	33060	
1645	0	32729	33465	32539	22164	33057	
1646	0	32601	31839	32574	24941	32717	
1647	0	32621	30394	32602	31734	32503	
1648	0	32780	29587	32622	39565	32928	
1649	0	32856	29562	32694	42253	33088	
1650	0	32815	30339	32688	39225	32971	
1651	0	32845	31933	32681	39039	32623	
1652	0	32696	33031	32743	34614	32689	
1653	0	32614	34238	32775	32093	32569	
1654	0	32600	34514	32831	30203	32919	
1655	0	32704	34931	32744	32471	32868	
1656	0	32688	34303	32750	32313	33083	
1657	0	32745	33046	32757	33243	33071	
1658	0	32775	31183	32704	35379	32869	
1659	0	33073	30114	32735	35059	32663	
1660	0	33080	30183	32695	33679	32745	
1661	0	32936	30577	32733	30757	33055	
1662	0	32968	30559	32583	29206	32868	
1663	0	32934	30413	32591	28133	32885	
1664	0	32755	30610	32666	29319	32998	
1665	0	32695	31481	32743	32027	32821	
1666	0	32728	32731	32772	36203	32721	
1667	0	32573	33547	32762	39597	32718	
1668	0	32582	34157	32767	40241	32770	
1669	0	32640	35143	32765	37925	32727	
1670	0	32708	35816	32742	28899	32581	
1671	0	32726	35155	32681	25128	32717	
1672	0	32833	33911	32729	21760	33358	
1673	0	32932	32135	32771	23683	33217	
1674	0	32852	30885	32745	29782	32899	
1675	0	32753	30993	32698	34007	32699	
1676	0	32770	31737	32753	35429	32656	
1677	0	32751	32263	32839	35810	32587	
1678	0	32775	32819	32849	37082	32735	
1679	0	32739	33223	32775	35751	32745	
1680	0	32953	32971	32729	35843	32659	
1681	0	32802	32697	32679	35505	32319	
1682	0	32615	32371	32501	34603	32627	
1683	0	32666	32643	32487	32798	33149	
1684	0	32628	32749	32510	32583	32980	
1685	0	32638	32887	32509	31570	32711	
1686	0	32628	32978	32623	32797	32903	
1687	0	32687	33009	32837	33093	33060	
1688	0	32821	33965	32853	36190	32833	
1689	0	32832	34445	32767	37215	32911	
1690	0	32775	34821	32799	31529	32954	
1691	0	32940	35376	32822	26061	32914	
1692	0	32916	35015	32829	23135	33211	
1693	0	32848	34563	32651	24047	32659	
1694	0	32717	34407	32670	30327	32229	
1695	0	32728	33888	32673	35795	32960	
1696	0	32718	32849	32839	39589	32845	
1697	0	32728	31588	32850	40117	32679	
1698	0	32735	29753	32740	40147	32832	
1699	0	32915	28867	32775	41185	32735	
1700	0	33019	28507	32845	40623	32735	
1701	0	32819	29665	32812	36661	32794	
1702	0	32699	31848	32767	32527	33138	
1703	0	32679	34661	32641	28209	32833	
1704	0	32732	36386	32654	25191	33138	
1705	0	32613	36423	32707	24359	32605	
1706	0	32514	35335	32775	27290	32882	
1707	0	32653	32990	32793	30994	32775	
1708	0	32632	31253	32850	28869	33159	
1709	0	32737	30101	32880	25741	32863	
1710	0	32688	30003	32839	25849	32630	
1711	0	32792	30224	32742	30897	32914	
1712	0	32873	30362	32587	36841	33076	
1713	0	33046	29811	32696	44790	32632	
1714	0	33272	29400	32807	48963	32162	
1715	0	32984	29753	32821	38432	32740	
1716	0	32685	30082	32702	29443	32713	
1717	0	32633	31455	32759	26543	32717	
1718	0	32774	32775	32775	29191	32789	
1719	0	32795	33775	32815	33435	33197	
1720	0	32843	34450	32691	33095	32958	
1721	0	32818	34592	32624	30262	32950	
1722	0	32816	35026	32560	27793	33140	
1723	0	32727	34525	32593	23463	33127	
1724	0	32626	33244	32775	25769	32519	
1725	0	32660	31855	32689	33122	32467	
1726	0	32746	31483	32710	38874	33127	
1727	0	32731	32071	32672	45554	32761	
1728	0	32775	33327	32759	45090	33031	
1729	0	32656	33900	32653	33397	33114	
1730	0	32681	34077	32534	26029	33057	
1731	0	32816	34659	32557	29171	33231	
1732	0	32835	34523	32739	30914	32292	
1733	0	32667	33961	32732	31094	32491	
1734	0	32592	32585	32741	33815	32549	
1735	0	32701	31788	32775	37299	32493	
1736	0	32775	31855	32815	38183	32743	
1737	0	32624	32413	32775	35987	32951	
1738	0	32643	33586	32734	34706	33168	
1739	0	32672	34619	32818	30260	32866	
1740	0	32724	34073	32775	18636	33069	
1741	0	32819	32962	32789	17744	32822	
1742	0	32860	31657	32625	24890	32724	
1743	0	32977	30837	32569	34415	32745	
1744	0	32995	30379	32563	43384	32885	
1745	0	32880	30703	32681	43523	32959	
1746	0	33005	31631	32749	39638	33047	
1747	0	33135	32771	32727	33885	33411	
1748	0	33136	33375	32740	30127	33215	
1749	0	32893	33657	32775	25069	32518	
1750	0	32795	33791	32770	23525	32448	
1751	0	32579	33746	32737	25253	33136	
1752	0	32561	33845	32621	30374	32955	
1753	0	32548	33637	32536	36443	32487	
1754	0	32640	33534	32551	41197	32225	
1755	0	32730	32996	32530	45511	32664	
1756	0	32800	31751	32591	43109	32749	
1757	0	32758	30334	32628	40631	32521	
1758	0	32870	29598	32756	41182	32319	
1759	0	32808	30253	32775	39875	32757	
1760	0	32809	31481	32793	29451	32696	
1761	0	32868	33072	32842	21383	32101	
1762	0	32758	34808	32869	21622	32890	
1763	0	32662	35809	32861	26685	32795	
1764	0	32651	36617	32770	29035	33200	
1765	0	32681	36999	32727	28031	33362	
1766	0	32626	36337	32671	26611	33071	
1767	0	32738	35219	32640	30481	33520	
1768	0	32868	33031	32661	33516	33143	
1769	0	32873	31074	32697	34575	32489	
1770	0	32840	29538	32656	36647	32377	
1771	0	32751	29283	32561	38127	32623	
1772	0	32728	29537	32598	36541	32825	
1773	0	33024	29761	32757	36201	32614	
1774	0	33038	29814	32903	35667	32923	
1775	0	32896	30345	32933	32739	32763	
1776	0	32775	31047	32759	26842	32899	
1777	0	32656	31775	32681	26781	32873	
1778	0	32592	32477	32770	31471	32821	
1779	0	32583	34003	32758	35395	32694	
1780	0	32608	35305	32775	31396	32991	
1781	0	32653	35388	32793	25764	32741	
1782	0	32680	34995	32803	25128	33178	
1783	0	32737	33799	32775	28149	33362	
1784	0	32569	33378	32803	34525	32809	
1785	0	32774	33216	32664	41063	32440	
1786	0	32708	33075	32550	49932	32308	
1787	0	32971	32787	32609	51233	32503	
1788	0	33048	32589	32573	40694	32549	
1789	0	33048	32432	32742	29121	32525	
1790	0	33023	32396	32734	23766	33148	
1791	0	32939	31736	32755	24994	33235	
1792	0	32954	31493	32605	24117	33210	
1793	0	33026	30827	32681	23607	32793	
1794	0	32833	30401	32679	28358	32949	
1795	0	32768	30214	32637	35406	33041	
1796	0	32770	30574	32621	39167	32943	
1797	0	32709	31210	32569	41345	32839	
1798	0	32701	31855	32737	40573	32863	
1799	0	32624	32096	32836	36047	32775	
1800	0	32758	31954	32905	25561	32845	
1801	0	32696	32455	32773	19923	32817	
1802	0	32623	33023	32684	25527	32775	
1803	0	32662	33749	32711	31632	33027	
1804	0	32666	34672	32739	34128	32720	
1805	0	32790	35305	32723	34132	32727	
1806	0	32720	35497	32791	30700	33029	
1807	0	32688	35487	32813	29981	32989	
1808	0	32808	34791	32679	32328	32461	
1809	0	32774	33415	32589	35531	32513	
1810	0	32713	32310	32639	41648	32580	
1811	0	32726	31459	32731	45063	32678	
1812	0	32772	31535	32806	42887	32479	
1813	0	32802	32849	32843	38847	33001	
1814	0	32803	33567	32823	35715	32839	
1815	0	32752	33991	32760	32100	32749	
1816	0	32870	33767	32766	25243	32772	
1817	0	32948	33261	32775	22155	32412	
1818	0	32878	31883	32666	22699	32393	
1819	0	32737	30903	32583	24279	32981	
1820	0	32692	31239	32670	26802	33221	
1821	0	32755	32313	32709	32151	33011	
1822	0	32755	32989	32706	33734	33086	
1823	0	32664	33410	32821	38074	33053	
1824	0	32660	33755	32799	39815	32747	
1825	0	32775	33665	32699	37259	32557	
1826	0	32862	32746	32675	29178	32888	
1827	0	32952	31704	32706	31547	32932	
1828	0	32903	31678	32562	36317	32628	
1829	0	32843	32241	32535	38511	33115	
1830	0	32888	32187	32725	37138	32801	
1831	0	32972	32534	32846	32764	32575	
1832	0	32899	32591	32818	28560	33021	
1833	0	33074	32694	32763	27143	33063	
1834	0	33135	32239	32671	27070	32303	
1835	0	33088	31780	32715	30445	32523	
1836	0	32868	31348	32775	32466	32918	
1837	0	32860	31300	32867	32813	32983	
1838	0	32611	31495	32769	35361	32550	
1839	0	32603	31824	32757	37283	32539	
1840	0	32493	33027	32817	36811	32845	
1841	0	32430	35015	32755	36119	32615	
1842	0	32393	36653	32587	37191	32995	
1843	0	32467	38151	32643	35847	33193	
1844	0	32519	37602	32639	31786	33131	
1845	0	32464	34820	32843	24860	33006	
1846	0	32476	31855	32997	24960	32487	
1847	0	32709	29191	32813	28130	32658	
1848	0	32905	27596	33009	30739	32795	
1849	0	32918	27776	33125	34330	32798	
1850	0	32981	28690	33185	35611	32883	
1851	0	33171	30063	33231	35601	33033	
1852	0	33067	31490	33166	32903	32966	
1853	0	32986	32343	32249	32568	32809	
1854	0	32936	32839	31406	34719	32646	
1855	0	32882	33513	31678	37817	32652	
1856	0	32900	34029	32249	39663	32717	
1857	0	32978	33108	32519	37890	32717	
1858	0	32996	32127	32827	31669	32964	
1859	0	33021	31692	32992	25660	32907	
1860	0	32981	31871	32930	21716	32610	
1861	0	32747	32421	32935	24860	32851	
1862	0	32558	33065	32953	26806	33031	
1863	0	32601	33410	33043	29661	33241	
1864	0	32612	33227	32840	35313	33178	
1865	0	32587	32775	32831	36929	32775	
1866	0	32793	32442	32882	36327	32897	
1867	0	32836	32871	32933	39291	32620	
1868	0	32706	33595	32821	39759	32228	
1869	0	32660	33671	32891	36248	32351	
1870	0	32614	33639	32875	31382	32775	
1871	0	32701	33764	32775	30861	33144	
1872	0	32804	33638	32688	31576	32993	
1873	0	32856	33287	32793	33848	33399	
1874	0	32770	33321	32728	37031	33047	
1875	0	32733	33139	32701	38279	32963	
1876	0	32790	32939	32670	36859	32743	
1877	0	32865	32533	32669	32928	32812	
1878	0	32832	31702	32583	29655	32991	
1879	0	32770	31879	32711	28691	32923	
1880	0	32819	32173	32706	27881	32646	
1881	0	32682	32567	32722	27241	32577	
1882	0	32617	32775	32775	27335	32557	
1883	0	32607	32819	32647	27447	32831	
1884	0	32632	32699	32605	30390	32611	
1885	0	32701	33405	32671	29789	33049	
1886	0	32724	33984	32775	31647	33053	
1887	0	32760	33744	32689	35405	33113	
1888	0	32800	33456	32756	40769	32758	
1889	0	32724	33186	32755	44515	31977	
1890	0	32682	32533	32750	40849	32237	
1891	0	32882	32071	32680	34575	32947	
1892	0	32826	31858	32835	29227	32829	
1893	0	32708	31698	32752	24299	32939	
1894	0	32812	31515	32696	25485	32989	
1895	0	32917	31191	32775	26619	32443	
1896	0	32784	31874	32807	31043	32883	
1897	0	32504	33439	32661	36804	32799	
1898	0	32597	34362	32623	32557	32796	
1899	0	32701	33959	32770	30215	33040	
1900	0	32873	33200	32900	38096	32912	
1901	0	33020	32975	32756	44711	33005	
1902	0	33158	33027	32707	43998	32997	
1903	0	33223	32923	32713	38715	32883	
1904	0	33099	33271	32602	34855	32991	
1905	0	33016	33618	32655	34079	32702	
1906	0	32948	33383	32775	27803	32688	
1907	0	32729	32915	32699	24671	32683	
1908	0	32813	32183	32765	24150	32822	
1909	0	32827	31986	32666	24781	32647	
1910	0	32724	32895	32534	25171	32831	
1911	0	32704	33923	32615	25657	32941	
1912	0	32432	33759	32711	25540	32949	
1913	0	32444	33138	32801	29073	32647	
1914	0	32677	32633	32817	33277	33000	
1915	0	32805	31891	32771	40802	32938	
1916	0	32645	30450	32733	45253	32756	
1917	0	32603	28991	32471	43344	32835	
1918	0	32696	28230	32363	38791	32728	
1919	0	32908	28070	32583	33149	32547	
1920	0	32977	28899	32691	31225	33202	
1921	0	33010	30202	32800	36487	32807	
1922	0	33024	31389	32873	35742	32813	
1923	0	32874	32876	32735	31072	32965	
1924	0	32893	33616	32655	25943	32601	
1925	0	32852	34460	32751	28059	33047	
1926	0	32704	34653	32832	33716	32848	
1927	0	32755	33837	32813	33650	32902	
1928	0	32644	33447	32742	31171	32770	
1929	0	32457	33558	32745	28158	32370	
1930	0	32583	34166	32801	26036	32803	
1931	0	32500	35037	32762	30105	33269	
1932	0	32568	35824	32711	35326	32986	
1933	0	32571	35770	32784	39485	32785	
1934	0	32677	35042	32775	42093	32853	
1935	0	32744	33693	32793	40409	32544	
1936	0	32877	32209	32722	33988	32698	
1937	0	32949	31047	32827	26703	33495	
1938	0	33008	29819	32863	27617	33321	
1939	0	32936	29917	32681	29190	31801	
1940	0	32775	30985	32641	29703	32287	
1941	0	32613	32233	32655	28987	32551	
1942	0	32608	33103	32604	28715	33095	
1943	0	32517	33143	32607	29097	33115	
1944	0	32582	32631	32681	30916	33270	
1945	0	32674	31702	32717	36658	33432	
1946	0	32861	31186	32817	43665	33037	
1947	0	33008	31821	32766	46923	33337	
1948	0	32902	33622	32826	39085	33275	
1949	0	32948	35015	32715	32503	32293	
1950	0	33045	36239	32704	28934	31186	
1951	0	32938	35549	32706	31638	31426	
1952	0	32851	34443	32711	29283	32289	
1953	0	32811	32765	32687	27263	32775	
1954	0	32722	31627	32756	28615	32775	
1955	0	32669	31265	32627	27574	33247	
1956	0	32624	31375	32571	28150	32992	
1957	0	32613	31983	32518	29657	32865	
1958	0	32596	32997	32717	29814	33009	
1959	0	32647	34050	32667	32071	33165	
1960	0	32646	34025	32674	37147	33059	
1961	0	32853	34148	32775	41307	33007	
1962	0	32845	34077	32771	43235	32869	
1963	0	32898	33498	32875	38855	32845	
1964	0	32912	32127	32879	32276	33075	
1965	0	32805	30545	32694	31133	33142	
1966	0	32775	30426	32591	33447	33081	
1967	0	32903	31323	32519	33095	33063	
1968	0	32805	32922	32605	29470	33125	
1969	0	32708	33635	32711	26368	32839	
1970	0	32676	32643	32754	25437	32889	
1971	0	32676	31379	32704	27306	33242	
1972	0	32736	30607	32706	30680	32706	
1973	0	32680	30590	32720	35486	32707	
1974	0	32706	31581	32763	37597	32741	
1975	0	32938	32949	32815	34747	32647	
1976	0	32928	34055	32807	31992	32775	
1977	0	32816	34340	32898	31231	32769	
1978	0	32915	33602	32683	32715	32515	
1979	0	32891	32536	32693	32509	32875	
1980	0	32875	31029	32633	30727	33671	
1981	0	32737	30140	32646	35335	33456	
1982	0	32784	30617	32709	44551	32223	
1983	0	32882	31765	32815	44115	32327	
1984	0	32748	34494	32690	35052	32601	
1985	0	32572	36197	32711	27276	32853	
1986	0	32582	36265	32769	26296	32885	
1987	0	32626	34707	32681	26674	32883	
1988	0	32860	32596	32513	28944	32961	
1989	0	32794	31143	32531	31621	32827	
1990	0	32622	29411	32711	30747	32679	
1991	0	32588	28474	32877	33655	32937	
1992	0	32690	29793	32870	39315	32343	
1993	0	32836	31623	32729	36948	32549	
1994	0	32799	33496	32699	31709	33356	
1995	0	32962	34796	32752	33314	33437	
1996	0	32839	34988	32743	34459	32628	
1997	0	32896	33773	32623	34147	32636	
1998	0	32932	32731	32748	28923	32962	
1999	0	32738	31623	32803	24636	33019	
2000	0	32608	29575	32796	24455	32880	
2001	0	32832	29096	32809	28123	32978	
2002	0	32953	30932	32818	32172	32996	
2003	0	32813	32836	32795	38308	32566	
2004	0	32738	33906	32743	40204	32726	
2005	0	32722	33914	32803	37811	32685	
2006	0	32863	34535	32832	36002	32847	
2007	0	32808	35036	32811	34852	32096	
2008	0	32668	35502	32774	30449	32199	
2009	0	32569	35525	32793	28160	33127	
2010	0	32548	34982	32735	29703	33351	
2011	0	32528	33539	32655	30781	31703	
2012	0	32683	31925	32685	31155	32881	
2013	0	32940	31796	32646	34073	33911	
2014	0	32916	32801	32587	38578	33049	
2015	0	32796	34037	32711	40333	32405	
2016	0	32946	34159	32775	36737	32927	
2017	0	32748	33513	32775	32795	33011	
2018	0	32656	32188	32821	29042	32605	
2019	0	32594	31527	32633	28012	32913	
2020	0	32604	30545	32579	25919	33125	
2021	0	32729	29733	32480	27855	32946	
2022	0	32952	29803	32391	33919	32987	
2023	0	33060	31216	32452	39661	32573	
2024	0	33136	32205	32391	43810	32220	
2025	0	32976	32505	32562	38884	32669	
2026	0	32856	33286	32667	27879	32882	
2027	0	32838	32911	32679	26187	32726	
2028	0	32791	32493	32683	27442	32833	
2029	0	32822	32263	32743	29802	32869	
2030	0	32934	32645	32753	31131	32943	
2031	0	32928	33344	32679	31456	32542	
2032	0	32884	33063	32725	29973	32525	
2033	0	32775	32459	32691	26037	33223	
2034	0	32614	32263	32642	26470	32757	
2035	0	32383	32571	32677	29533	33051	
2036	0	32394	33607	32578	35840	33222	
2037	0	32484	34889	32738	44281	33936	
2038	0	32571	36002	32748	50041	33698	
2039	0	32558	36330	32741	43298	32626	
2040	0	32578	36728	32736	30714	32513	
2041	0	32642	36198	32727	25018	32497	
2042	0	32883	35179	32667	27679	32295	
2043	0	32735	33741	32647	28811	32480	
2044	0	32710	32205	32790	31853	32623	
2045	0	32774	30061	32825	32336	32637	
2046	0	32930	29023	32736	33485	32891	
2047	0	33117	29275	32743	35835	32755	
2048	0	33154	29847	32847	38576	32846	
2049	0	33155	31047	32759	38493	32833	
2050	0	33020	32605	32722	36824	32730	
2051	0	33001	33330	32583	35367	32934	
2052	0	32784	32573	32540	34670	32898	
2053	0	32967	31186	32562	29319	33120	
2054	0	33024	29917	32530	22531	33309	
2055	0	32936	29602	32617	19971	33158	
2056	0	32961	29568	32642	23685	32715	
2057	0	32868	29295	32771	28109	32199	
2058	0	32725	30215	32850	31581	32654	
2059	0	32545	31995	32805	32583	32907	
2060	0	32546	34102	32757	31863	32835	
2061	0	32479	35281	32698	33249	32891	
2062	0	32495	35163	32580	38515	32825	
2063	0	32546	33704	32611	47211	32735	
2064	0	32548	32619	32647	48103	32647	
2065	0	32521	32008	32665	37124	32850	
2066	0	32625	31204	32679	26670	32863	
2067	0	33014	31415	32675	25123	32967	
2068	0	32904	32322	32763	28672	32947	
2069	0	32827	33479	32795	30137	32839	
2070	0	32683	34271	32831	29299	32863	
2071	0	32632	33529	32861	27975	33127	
2072	0	32746	33304	32839	29829	32887	
2073	0	32626	33892	32846	36653	33008	
2074	0	32571	34416	32784	45330	32448	
2075	0	32740	34843	32667	49527	32503	
2076	0	32839	36213	32709	43436	32630	
2077	0	32964	36427	32528	27856	32824	
2078	0	33143	34546	32647	16353	32875	
2079	0	33125	31526	32710	17243	32929	
2080	0	32960	29227	32823	26499	33197	
2081	0	32905	28089	32869	32211	32790	
2082	0	32812	28599	32658	34277	32519	
2083	0	32885	29575	32749	34599	32707	
2084	0	32669	30844	32707	35974	33223	
2085	0	32463	32263	32854	39213	32863	
2086	0	32588	33220	32870	41701	32581	
2087	0	32724	34174	32891	39459	32600	
2088	0	32853	34355	32681	33154	33154	
2089	0	33040	34787	32696	25320	33684	
2090	0	32918	35774	32621	21552	32559	
2091	0	32760	36705	32753	25521	32624	
2092	0	32798	37295	32722	33048	32756	
2093	0	32720	36855	32816	36089	32297	
2094	0	32701	35698	32799	35187	32796	
2095	0	32713	33409	32715	32605	32555	
2096	0	32820	30072	32698	33005	32760	
2097	0	32882	28421	32482	33698	32975	
2098	0	32826	27417	32677	32395	32896	
2099	0	32705	28478	32809	29696	32747	
2100	0	32853	30269	32735	27225	32500	
2101	0	32848	31862	32720	29797	32922	
2102	0	32793	32845	32842	36953	32848	
2103	0	32618	34005	32864	42631	32999	
2104	0	32704	35474	32794	45123	33577	
2105	0	32891	36719	32786	43488	32751	
2106	0	32916	36720	32753	36517	32933	
2107	0	32898	35184	32755	24671	33186	
2108	0	32817	31438	32809	20616	32170	
2109	0	32676	28008	32878	26578	32591	
2110	0	32843	27008	32770	34495	33026	
2111	0	32839	29703	32825	35994	32724	
2112	0	32651	32455	32729	31224	32724	
2113	0	32501	33430	32677	28503	32997	
2114	0	32640	33591	32630	32722	32763	
2115	0	32837	32756	32683	35611	32510	
2116	0	32728	31281	32774	37140	32753	
2117	0	32669	30427	32729	37819	32837	
2118	0	32553	30700	32793	33716	32857	
2119	0	32601	31389	32817	27642	32841	
2120	0	32896	32549	32845	25447	33107	
2121	0	33134	33842	32844	27655	33017	
2122	0	33016	35715	32824	32377	32684	
2123	0	32931	36162	32971	35917	32523	
2124	0	32767	34927	32959	34540	32822	
2125	0	32705	33521	32851	29945	32946	
2126	0	32740	31545	32515	25197	32751	
2127	0	32832	30979	32239	28130	32882	
2128	0	32738	32096	32460	37895	33092	
2129	0	32700	33719	32515	45588	32866	
2130	0	32661	35107	32669	44339	32774	
2131	0	32745	36511	32734	34670	32771	
2132	0	32745	37661	32765	27695	32663	
2133	0	32828	36446	32803	24486	32857	
2134	0	32853	33542	32775	24306	32903	
2135	0	33095	29850	32769	27406	32745	
2136	0	33153	26476	32745	33746	32429	
2137	0	33235	25313	32832	37789	32537	
2138	0	33339	27153	32725	39431	32799	
2139	0	33256	29382	32671	36909	32670	
2140	0	33176	31477	32675	35110	32960	
2141	0	32950	32259	32727	35383	33078	
2142	0	32887	32951	32659	34585	32941	
2143	0	32761	33315	32787	31751	32837	
2144	0	32685	33873	32873	31091	33052	
2145	0	32845	34311	32787	29665	32870	
2146	0	33093	34759	32727	26435	32519	
2147	0	33065	34695	32785	27706	32407	
2148	0	32738	35491	32755	33671	32694	
2149	0	32583	35443	32740	34547	33178	
2150	0	32504	35499	32847	32837	32807	
2151	0	32552	34680	32775	30637	33266	
2152	0	32609	33509	32795	31239	33243	
2153	0	32640	32809	32767	35335	32286	
2154	0	32569	32391	32839	37837	32413	
2155	0	32428	31387	32922	37099	33003	
2156	0	32427	30431	32859	33634	32944	
2157	0	32464	28000	32755	30151	33175	
2158	0	32484	25647	32739	29191	32466	
2159	0	32443	26250	32663	31931	32589	
2160	0	32358	29278	32669	34808	33081	
2161	0	32317	32391	32866	38475	32753	
2162	0	32323	33927	32947	39485	32885	
2163	0	32290	34303	32955	35751	33176	
2164	0	32472	34669	32998	32320	33170	
2165	0	32642	34920	32970	25159	32723	
2166	0	32686	35699	32902	23659	32583	
2167	0	32716	36013	32851	26791	32741	
2168	0	32756	36827	32750	28459	33157	
2169	0	32763	36955	32722	32221	32889	
2170	0	32704	37714	32613	33072	32479	
2171	0	32620	37403	32656	34194	32374	
2172	0	32764	35949	32664	35919	32736	
2173	0	32954	33722	32677	39500	32738	
2174	0	32880	30791	32706	37747	33082	
2175	0	32972	28773	32803	31208	32890	
2176	0	32996	27122	32728	30631	32553	
2177	0	33004	26459	32635	36819	33155	
2178	0	33069	27283	32693	40621	33106	
2179	0	33116	29155	32718	40450	32719	
2180	0	33222	31264	32740	34790	32861	
2181	0	33008	32896	32752	21374	32751	
2182	0	32775	33967	32818	18376	32483	
2183	0	32858	35125	32771	24918	32595	
2184	0	32893	35419	32879	32681	32832	
2185	0	33028	34498	32839	38369	32634	
2186	0	32728	33150	32775	37696	32767	
2187	0	32656	32379	32925	37287	32890	
2188	0	32825	32591	32883	36317	33278	
2189	0	32768	34511	32984	32438	32853	
2190	0	32644	36635	32888	30640	32893	
2191	0	32682	37383	32839	32164	32174	
2192	0	32658	36048	32729	32327	32117	
2193	0	32442	33223	32715	32315	33331	
2194	0	32464	29858	32676	31212	33095	
2195	0	32669	27989	32587	31111	33159	
2196	0	32853	27607	32563	31058	32827	
2197	0	33039	28615	32569	31919	32679	
2198	0	33016	30497	32607	34138	33123	
2199	0	33030	31920	32600	41719	32997	
2200	0	32964	32957	32683	44263	33040	
2201	0	32864	32553	32599	34712	32609	
2202	0	32908	31572	32569	26554	32902	
2203	0	33053	32615	32605	26552	32868	
2204	0	32936	34358	32610	24717	32693	
2205	0	32828	34707	32630	23773	32667	
2206	0	32706	33602	32615	24583	32515	
2207	0	32634	32581	32663	27503	32867	
2208	0	32647	31367	32710	26693	32806	
2209	0	32630	30245	32867	30384	32944	
2210	0	32782	30094	32960	40359	33032	
2211	0	32870	30457	32928	46129	32620	
2212	0	32672	32507	32901	46595	33031	
2213	0	32524	34062	32874	43155	33256	
2214	0	32626	35110	32774	36079	33331	
2215	0	32940	35079	32733	28978	33022	
2216	0	32921	34327	32659	27583	33319	
2217	0	32872	32986	32674	35795	33017	
2218	0	32723	33475	32723	37915	31537	
2219	0	32768	35321	32679	32091	32146	
2220	0	32752	36315	32658	27250	32837	
2221	0	32641	35502	32701	27955	32655	
2222	0	32638	32278	32614	28334	32595	
2223	0	32845	30006	32594	28823	32592	
2224	0	32876	29369	32623	30125	32579	
2225	0	32737	30829	32581	35097	33346	
2226	0	32798	31293	32711	36913	33429	
2227	0	32998	31039	32719	37254	32307	
2228	0	32966	31769	32802	37165	32499	
2229	0	32888	32834	32753	33883	32644	
2230	0	32788	34823	32722	29959	32658	
2231	0	32738	35594	32706	31239	33079	
2232	0	32674	35026	32717	30130	33362	
2233	0	32636	33412	32743	28403	33133	
2234	0	32646	33167	32697	27568	32423	
2235	0	32652	32589	32739	30266	32694	
2236	0	32599	32199	32775	32026	33059	
2237	0	32692	31231	32805	34991	32805	
2238	0	32744	31203	32845	31431	32925	
2239	0	32775	31015	32809	28789	33123	
2240	0	32823	31823	32789	31281	33155	
2241	0	32916	33556	32719	35453	33053	
2242	0	32628	35090	32683	37518	32569	
2243	0	32720	35096	32594	35666	33077	
2244	0	32612	33572	32540	36091	32287	
2245	0	32612	31765	32635	36055	32314	
2246	0	32806	30597	32717	32419	33319	
2247	0	32739	30621	32775	33200	33194	
2248	0	32788	32608	32775	37209	32850	
2249	0	32814	34579	32821	38029	32963	
2250	0	32775	36554	32891	37880	32942	
2251	0	32717	37843	32819	37455	32483	
2252	0	32696	38255	32678	33257	32959	
2253	0	32721	36264	32680	25303	32955	
2254	0	32745	33479	32518	22595	32167	
2255	0	32829	29333	32605	26067	32794	
2256	0	33032	26887	32594	31520	32839	
2257	0	33238	27407	32721	34047	32958	
2258	0	33091	29633	32865	35597	32818	
2259	0	32932	30575	32903	36795	32449	
2260	0	32763	29683	32743	34695	32733	
2261	0	32864	27967	32733	28986	32557	
2262	0	32815	27088	32775	27324	32571	
2263	0	32850	27849	32861	28536	32863	
2264	0	32698	29007	32839	30200	32851	
2265	0	32640	30112	32719	33106	32481	
2266	0	32685	31642	32676	36642	33137	
2267	0	32679	33163	32705	36636	33139	
2268	0	32542	35113	32754	36807	32411	
2269	0	32790	36653	32775	35631	32889	
2270	0	32832	37331	32763	34387	32907	
2271	0	32720	36230	32807	32067	32801	
2272	0	32775	34845	32819	37451	32947	
2273	0	32761	34491	32775	37189	33439	
2274	0	32643	35034	32722	30548	33287	
2275	0	32795	36012	32683	24398	32314	
2276	0	32763	36250	32741	24613	33317	
2277	0	32759	35394	32813	28597	33115	
2278	0	32990	34089	32719	31265	32918	
2279	0	32803	32381	32786	30727	33386	
2280	0	32775	31239	32775	29595	32681	
2281	0	32764	30642	32745	32396	32301	
2282	0	32853	31453	32504	33258	32846	
2283	0	32755	32306	32521	34412	32717	
2284	0	32728	32793	32585	37926	32773	
2285	0	32640	32522	32639	40925	33042	
2286	0	32652	32071	32606	40103	32799	
2287	0	32596	31408	32595	33693	32595	
2288	0	32430	31261	32707	26271	32485	
2289	0	32559	31445	32881	27563	32423	
2290	0	32640	31983	32837	29901	32921	
2291	0	32492	32678	32848	34269	32898	
2292	0	32638	32871	32688	39431	33088	
2293	0	32892	32711	32582	42838	33049	
2294	0	33069	32561	32637	38357	32596	
2295	0	32989	32071	32759	29232	32564	
2296	0	32953	31824	32775	23904	32845	
2297	0	33035	32235	32743	24911	32391	
2298	0	33004	33402	32807	29827	32473	
2299	0	32824	35474	32766	35251	32735	
2300	0	32695	37374	32673	40551	32997	
2301	0	32886	39321	32701	39903	32898	
2302	0	32669	39670	32786	33562	32800	
2303	0	32670	37284	32713	23010	32872	
2304	0	32743	32902	32775	19849	33061	
2305	0	32704	27719	32948	21600	32685	
2306	0	32762	24356	32932	30091	33232	
2307	0	33008	23788	32872	36127	33259	
2308	0	33064	26315	32974	41031	32857	
2309	0	32959	30431	32952	41235	32251	
2310	0	32681	33799	32734	37623	32853	
2311	0	32484	35117	32384	36824	33055	
2312	0	32422	35271	32391	39899	32719	
2313	0	32368	33934	32621	38251	32813	
2314	0	32624	33055	32731	31379	32832	
2315	0	32786	31880	32735	26307	32880	
2316	0	32950	31354	32711	28390	33312	
2317	0	33073	30663	32751	31515	32743	
2318	0	32946	32112	32699	37536	32667	
2319	0	32652	34133	32698	36663	32377	
2320	0	32717	34695	32730	35491	32603	
2321	0	32940	34753	32775	32619	32929	
2322	0	33065	34054	32775	26600	32868	
2323	0	33161	32883	32746	24609	33349	
2324	0	33027	32277	32823	27591	33182	
2325	0	33045	30831	32765	29937	32866	
2326	0	32975	30011	32835	30712	32865	
2327	0	32980	29277	32883	28461	32863	
2328	0	32711	29607	32839	29133	33071	
2329	0	32624	30547	32885	28913	32117	
2330	0	32604	32754	32805	30112	32568	
2331	0	32581	35179	32851	33164	32955	
2332	0	32632	37129	32837	37131	32848	
2333	0	32552	38648	32839	40444	32723	
2334	0	32570	39063	32875	40311	32877	
2335	0	32640	36871	32755	41991	32402	
2336	0	32628	33168	32487	41088	32603	
2337	0	32578	28725	32429	34728	32858	
2338	0	32801	26105	32598	27607	32616	
2339	0	32816	25091	32642	26486	32747	
2340	0	32962	26689	32591	28847	33005	
2341	0	32928	30389	32679	30627	33033	
2342	0	32860	34227	32865	33842	33463	
2343	0	32592	36514	32775	37959	33242	
2344	0	32678	37575	32812	40356	32815	
2345	0	32775	37094	32721	33251	32824	
2346	0	32972	35581	32723	28723	32927	
2347	0	33142	33574	32743	30496	33054	
2348	0	32984	32179	32748	31821	33009	
2349	0	32796	31233	32750	31351	32654	
2350	0	32788	30471	32743	28007	32889	
2351	0	32590	30482	32775	28743	32796	
2352	0	32524	30971	32757	30283	32608	
2353	0	32563	31311	32717	31871	32691	
2354	0	32640	31701	32674	32015	32599	
2355	0	32420	32861	32601	33503	32949	
2356	0	32383	34307	32599	33605	32477	
2357	0	32362	36158	32670	33011	32717	
2358	0	32631	38277	32890	34759	32975	
2359	0	32700	39550	32855	35015	32765	
2360	0	32708	38983	32761	31874	32915	
2361	0	32758	35371	32822	30843	32829	
2362	0	32981	29958	32833	30878	32365	
2363	0	33161	24637	32603	30358	32982	
2364	0	33170	22671	32637	31323	33073	
2365	0	32972	25271	32663	35166	32990	
2366	0	32768	28976	32724	40313	32785	
2367	0	32775	32199	32771	42092	32487	
2368	0	32989	34006	32812	39094	33231	
2369	0	33060	34039	32813	35131	33161	
2370	0	33032	33821	32743	38797	32593	
2371	0	32685	32943	32770	36142	32327	
2372	0	32666	32355	32763	32323	33443	
2373	0	32880	33018	32799	30339	32930	
2374	0	33004	34554	32683	27181	33032	
2375	0	32924	35927	32709	20792	32598	
2376	0	32816	35687	32685	19301	32721	
2377	0	32720	33837	32741	24783	33005	
2378	0	32972	31344	32827	30025	32775	
2379	0	33072	29383	32809	34189	33151	
2380	0	32825	29657	32839	37546	32733	
2381	0	32576	31344	32717	41586	32214	
2382	0	32531	32667	32743	42311	32439	
2383	0	32329	35175	32772	34601	32858	
2384	0	32180	37412	32804	25332	32570	
2385	0	32206	37977	32775	26258	33446	
2386	0	32372	38050	32816	34304	33442	
2387	0	32455	36591	32768	37379	33119	
2388	0	32583	35651	32809	36711	33183	
2389	0	32805	34587	32822	33776	32767	
2390	0	32882	34424	32772	29043	32541	
2391	0	32945	33147	32757	26118	32722	
2392	0	33094	31783	32809	28699	32359	
2393	0	33165	29732	32775	34253	32586	
2394	0	33081	28623	32553	37976	32873	
2395	0	32920	28467	32556	36246	32925	
2396	0	32743	28618	32573	36123	32762	
2397	0	32690	28057	32617	41004	32331	
2398	0	32948	27862	32616	41543	32327	
2399	0	32972	29750	32609	29208	32870	
2400	0	32955	32490	32658	20190	33108	
2401	0	33044	33644	32686	23554	32947	
2402	0	32853	33666	32734	30104	32950	
2403	0	32700	33530	32743	33679	32951	
2404	0	32727	33279	32688	35937	32889	
2405	0	32670	32707	32720	35259	33241	
2406	0	32817	31987	32733	32437	32949	
2407	0	32989	30576	32804	33245	32535	
2408	0	32828	29395	32831	33869	32583	
2409	0	32623	28910	32731	33645	32482	
2410	0	32644	29202	32719	32981	32597	
2411	0	32628	30663	32609	32255	32759	
2412	0	32676	32301	32613	27860	32900	
2413	0	32775	34269	32675	27139	33020	
2414	0	32583	35783	32699	29738	32717	
2415	0	32592	37415	32794	35099	32785	
2416	0	32696	38977	32818	40162	33120	
2417	0	32877	40255	32793	42926	33255	
2418	0	32950	39300	32768	39298	32263	
2419	0	33085	36700	32599	31431	32849	
2420	0	33056	33342	32555	28111	32061	
2421	0	32908	29502	32568	27186	33117	
2422	0	32868	26845	32594	25372	33427	
2423	0	33016	26181	32608	27224	33351	
2424	0	32972	26631	32665	31664	32813	
2425	0	32745	27352	32738	37895	32493	
2426	0	32764	28203	32701	37671	32538	
2427	0	32845	30609	32882	37997	32436	
2428	0	32710	33993	32799	34853	32972	
2429	0	32402	36627	32832	29558	32757	
2430	0	32300	38521	32868	33262	32752	
2431	0	32446	39115	32741	39879	32868	
2432	0	32610	38903	32676	39235	32839	
2433	0	32696	38513	32735	29080	32967	
2434	0	32765	36841	32770	24644	32928	
2435	0	32880	35591	32770	27081	32927	
2436	0	32774	34295	32843	30082	32775	
2437	0	32855	33414	32811	30501	32391	
2438	0	32919	31167	32815	32451	32660	
2439	0	32819	28183	32797	34366	33285	
2440	0	33051	25325	32839	34277	33168	
2441	0	33360	25129	32677	38659	32537	
2442	0	33312	28610	32415	41899	31990	
2443	0	33038	32730	32437	35756	32630	
2444	0	32841	36555	32595	30418	33193	
2445	0	32690	38611	32666	28815	32407	
2446	0	32473	38759	32798	31711	32863	
2447	0	32440	36265	32734	31195	33150	
2448	0	32256	33018	32644	34842	33266	
2449	0	32432	31523	32662	41394	33275	
2450	0	32902	30368	32666	35154	33272	
2451	0	32986	28683	32670	21352	32873	
2452	0	32941	26456	32719	15168	32594	
2453	0	32808	23998	32761	22946	32391	
2454	0	32800	23130	32800	34146	32601	
2455	0	32676	24605	32920	40169	32583	
2456	0	32584	27474	32805	40583	32539	
2457	0	32508	30194	32819	38369	32765	
2458	0	32491	33591	32711	35729	32544	
2459	0	32760	36275	32789	32606	32873	
2460	0	32917	39894	32787	29138	32955	
2461	0	32998	42192	32720	27863	32769	
2462	0	32796	41987	32860	28145	33207	
2463	0	32564	40960	32915	32676	33456	
2464	0	32544	38259	32967	35959	33008	
2465	0	32576	33957	32920	40455	32788	
2466	0	32805	29983	32995	43358	32767	
2467	0	32907	26541	32650	40889	32405	
2468	0	33222	26168	32325	34861	32628	
2469	0	33262	27945	32232	26374	32628	
2470	0	33287	30010	32455	20611	32869	
2471	0	33384	31506	32634	25848	33167	
2472	0	32983	33831	32703	28432	33075	
2473	0	32775	35727	32711	29687	33554	
2474	0	32504	36733	32754	32944	33200	
2475	0	32370	36755	32850	31661	32753	
2476	0	32392	35514	32741	28558	32377	
2477	0	32545	32469	32688	31144	32813	
2478	0	32822	30412	32618	41216	32774	
2479	0	32751	29113	32697	49563	32739	
2480	0	32775	29035	32633	40422	33352	
2481	0	32896	30971	32640	32248	32927	
2482	0	32845	32695	32704	30359	32127	
2483	0	32775	32903	32647	29527	32679	
2484	0	32880	33446	32499	28736	32492	
2485	0	32756	33922	32539	28893	32775	
2486	0	32528	34450	32657	29599	32694	
2487	0	32394	35439	32757	32549	32583	
2488	0	32508	35971	32829	36448	32363	
2489	0	32647	36351	32863	36421	32929	
2490	0	32616	35964	32909	31929	33027	
2491	0	32658	35223	32875	27444	33090	
2492	0	32712	33639	32889	28394	32607	
2493	0	32992	32885	32813	31988	33095	
2494	0	33046	32239	32822	38530	32903	
2495	0	32952	30673	32851	42798	32628	
2496	0	32902	28951	32797	43733	33271	
2497	0	32829	28194	32762	38837	33356	
2498	0	32984	28207	32549	30804	33097	
2499	0	32856	30871	32565	23782	32910	
2500	0	32715	34046	32595	21490	32145	
2501	0	32636	35502	32565	24402	32371	
2502	0	32873	35865	32578	26955	32975	
2503	0	32849	34535	32595	28603	33223	
2504	0	32824	32701	32698	29541	33107	
2505	0	32680	31022	32891	27807	33134	
2506	0	32664	30650	32978	28325	33095	
2507	0	32594	31370	32977	28996	32851	
2508	0	32680	33280	32877	32710	31412	
2509	0	32741	35799	32775	40002	32337	
2510	0	32690	36659	32713	48448	33120	
2511	0	32713	35813	32610	48999	33343	
2512	0	32858	33027	32540	38290	33123	
2513	0	32996	29831	32677	32941	33132	
2514	0	32952	28301	32694	33257	31954	
2515	0	32872	29443	32811	32935	32733	
2516	0	32701	31069	32900	31181	32741	
2517	0	32514	31171	32821	32567	32997	
2518	0	32628	31082	32773	36709	32740	
2519	0	32775	30727	32774	38511	32417	
2520	0	32757	31035	32640	34055	32848	
2521	0	32833	31162	32640	27082	33206	
2522	0	32775	31763	32647	26707	33682	
2523	0	33008	34413	32744	29299	33700	
2524	0	32957	36394	32805	29178	32520	
2525	0	32636	35497	32789	29745	32039	
2526	0	32516	34688	32749	29985	33091	
2527	0	32669	33321	32739	30633	33243	
2528	0	32691	31077	32711	32404	32707	
2529	0	32711	28373	32612	32487	32464	
2530	0	32838	26160	32530	31025	32747	
2531	0	33100	26025	32598	28751	32543	
2532	0	33232	27097	32622	26786	32798	
2533	0	33195	29550	32656	26070	33239	
2534	0	32860	32684	32728	33349	32656	
2535	0	32656	35712	32754	42688	32832	
2536	0	32605	39161	32756	48230	32514	
2537	0	32667	42981	32772	40554	32398	
2538	0	32602	44790	32832	27201	33318	
2539	0	32573	44678	32893	25383	32950	
2540	0	32384	40575	32896	28330	32722	
2541	0	32684	34991	32864	31552	32159	
2542	0	32605	28427	32736	35972	32900	
2543	0	32745	24596	32627	37365	32665	
2544	0	32866	24464	32656	35490	32493	
2545	0	32998	26763	32683	35795	32918	
2546	0	32797	29380	32699	35634	33362	
2547	0	32769	31884	32651	36859	33083	
2548	0	32530	32707	32668	35771	32608	
2549	0	32752	33542	32735	33933	32960	
2550	0	32994	34099	32750	26401	33256	
2551	0	32924	34627	32764	21843	32711	
2552	0	33134	35037	32640	26179	33045	
2553	0	33246	34971	32651	32945	33095	
2554	0	33302	35095	32599	34323	32851	
2555	0	33174	33702	32623	33448	33169	
2556	0	33030	31145	32669	34681	34067	
2557	0	32785	28020	32841	38486	32987	
2558	0	32656	25616	32643	38803	32303	
2559	0	32678	25222	32615	34116	31924	
2560	0	32676	27820	32575	29216	32165	
2561	0	32612	31577	32662	26617	32061	
2562	0	32564	33799	32711	28768	32093	
2563	0	32576	36055	32820	30660	32672	
2564	0	32344	35945	32801	29347	33153	
2565	0	32459	34450	32824	26811	33082	
2566	0	32560	32462	32877	30372	33180	
2567	0	32622	30974	32829	33259	33041	
2568	0	32686	31657	32706	34515	33009	
2569	0	32592	33282	32759	40466	32970	
2570	0	32808	34311	32772	46451	32668	
2571	0	33009	35565	32767	46705	32805	
2572	0	32838	35931	32775	40931	32989	
2573	0	32896	34838	32711	30266	33192	
2574	0	33024	33469	32681	22234	32243	
2575	0	33061	32025	32700	20611	32998	
2576	0	32926	31226	32741	25542	33578	
2577	0	32844	31957	32710	29374	32831	
2578	0	32860	33371	32644	30062	32381	
2579	0	32612	34823	32851	31625	32929	
2580	0	32440	36359	32829	36265	33086	
2581	0	32486	37997	32868	36651	32650	
2582	0	32576	37631	32889	35290	32557	
2583	0	32706	35047	32800	32681	33255	
2584	0	32821	32240	32745	30925	32290	
2585	0	32669	30165	32704	30283	32071	
2586	0	32806	30471	32704	30991	32719	
2587	0	32677	31548	32665	33777	33221	
2588	0	32656	31471	32634	34018	32812	
2589	0	32833	29905	32668	34159	33031	
2590	0	32710	28227	32733	35308	33043	
2591	0	32804	28889	32676	42230	32844	
2592	0	32839	31503	32421	47303	32802	
2593	0	32860	35314	32461	38304	32898	
2594	0	32749	38658	32757	28269	33395	
2595	0	32813	38681	32711	22406	32570	
2596	0	32768	37191	32855	20539	32442	
2597	0	32787	35279	32948	25383	32673	
2598	0	32642	33049	32887	32027	32541	
2599	0	32752	29364	33011	34768	32820	
2600	0	32844	26355	32912	35769	32895	
2601	0	32896	25194	32357	34520	32949	
2602	0	32972	26612	32242	32291	32903	
2603	0	32867	27203	32609	31777	32511	
2604	0	32759	27807	32985	31575	32839	
2605	0	32898	28999	32935	33778	32801	
2606	0	33061	30864	32892	32188	32956	
2607	0	32853	31984	32757	25772	33258	
2608	0	32662	33280	32713	28265	32903	
2609	0	32603	33808	32724	33133	32870	
2610	0	32704	33485	32719	33434	33154	
2611	0	32738	33273	32742	33411	32791	
2612	0	32917	34338	32767	33031	32681	
2613	0	33081	34055	32685	31332	32583	
2614	0	33202	32253	32591	32599	32795	
2615	0	33112	31104	32540	41174	32400	
2616	0	33157	31269	32539	51506	33169	
2617	0	33134	32037	32646	42104	33232	
2618	0	32970	33980	32764	28623	32847	
2619	0	32634	36167	32767	24708	32523	
2620	0	32374	37495	32759	29861	32621	
2621	0	32281	37869	32749	34063	33048	
2622	0	32360	36886	32787	36906	32919	
2623	0	32512	34923	32871	36197	32104	
2624	0	32462	33693	32882	28252	32374	
2625	0	32707	34008	32812	19966	32743	
2626	0	32858	33799	32667	21032	32855	
2627	0	33003	33089	32571	23881	33115	
2628	0	32905	32421	32507	29511	33315	
2629	0	32732	32117	32517	37239	32860	
2630	0	32670	30358	32562	44207	32792	
2631	0	32560	29213	32687	44950	32757	
2632	0	32755	28942	32793	38005	32857	
2633	0	32582	29484	32831	31704	32805	
2634	0	32724	29561	32917	28002	33119	
2635	0	32688	29693	32853	26749	32610	
2636	0	32589	31007	32821	27983	32698	
2637	0	32731	34247	32835	31692	33127	
2638	0	32843	37117	32839	33917	32905	
2639	0	32752	38009	32825	32817	33159	
2640	0	32873	37509	32794	28891	32924	
2641	0	32855	36219	32735	26659	32891	
2642	0	32919	34819	32702	30148	32445	
2643	0	32643	33183	32729	34396	32279	
2644	0	32622	31895	32892	39155	32651	
2645	0	32672	32291	32706	46059	32537	
2646	0	32740	34117	32747	51143	32813	
2647	0	32724	35575	32839	44297	32887	
2648	0	32722	35298	32818	29114	32976	
2649	0	32877	33463	32484	22785	32893	
2650	0	33019	30045	32339	21912	32541	
2651	0	33157	27655	32557	26973	32647	
2652	0	33071	27387	32293	34295	32890	
2653	0	33016	28286	32523	33993	33041	
2654	0	33024	30346	32550	31027	32509	
2655	0	33010	32679	32813	29327	32937	
2656	0	32974	34031	33049	30551	33119	
2657	0	32510	34055	32984	31543	33208	
2658	0	32492	33415	33031	30749	33271	
2659	0	32256	34290	33171	31590	32858	
2660	0	32148	36494	33232	33799	32809	
2661	0	32042	37993	33349	34434	32415	
2662	0	32263	39248	33257	32482	32564	
2663	0	32500	37859	32063	31525	32890	
2664	0	32877	33453	31428	34778	32797	
2665	0	33232	28416	31928	37015	32906	
2666	0	33506	25826	32421	37606	32400	
2667	0	33505	24811	32664	31047	33188	
2668	0	33275	25015	32677	27169	33089	
2669	0	33248	25890	32706	26059	32699	
2670	0	33274	27593	32667	31197	31995	
2671	0	32960	30224	32726	43736	32289	
2672	0	32813	33304	32736	52156	32851	
2673	0	32709	35600	32613	46559	33015	
2674	0	32680	37604	32500	36462	33039	
2675	0	32612	38387	32361	24791	33186	
2676	0	32576	35752	32446	18415	33325	
2677	0	32523	33098	32775	17363	32885	
2678	0	32401	32442	32973	18406	32863	
2679	0	32388	34183	33015	23458	32748	
2680	0	32425	38357	32882	29341	32619	
2681	0	32488	40631	32839	34392	33213	
2682	0	32544	39681	32918	38483	32655	
2683	0	32664	35333	32920	42304	31965	
2684	0	32761	31255	33049	42498	32390	
2685	0	32900	27695	33105	38281	32793	
2686	0	33208	25144	33106	30942	33365	
2687	0	33172	22585	32809	26563	32900	
2688	0	33304	21199	32859	29168	32428	
2689	0	33336	22925	32882	33902	32761	
2690	0	33076	25250	32825	36528	32733	
2691	0	33041	29146	33015	38667	32847	
2692	0	32808	33394	32881	38593	32423	
2693	0	32622	35251	32774	37165	32553	
2694	0	32496	34435	32794	32656	32765	
2695	0	32638	34011	32738	35299	32728	
2696	0	32681	34095	32703	34400	32936	
2697	0	32528	34883	32705	31407	33723	
2698	0	32476	35271	32690	31221	33123	
2699	0	32614	36495	32651	33202	32221	
2700	0	32749	38227	32729	33557	32651	
2701	0	32652	40075	32741	29233	33125	
2702	0	32656	41808	32804	21549	33328	
2703	0	32581	42103	32802	18601	32941	
2704	0	32624	38700	32680	25231	33139	
2705	0	32704	33547	32663	33147	32661	
2706	0	32791	30700	32628	37408	32536	
2707	0	32836	29730	32704	40031	32302	
2708	0	32718	29475	32662	38153	32189	
2709	0	32752	29955	32699	34097	32839	
2710	0	32872	30435	32673	33749	33045	
2711	0	32880	31227	32751	35503	32812	
2712	0	32992	29715	32838	34543	32925	
2713	0	32848	27755	32818	33660	33086	
2714	0	32720	27471	32801	30742	33073	
2715	0	32332	28079	32710	27433	32763	
2716	0	32274	29895	32789	24047	32919	
2717	0	32448	33159	32738	26494	33052	
2718	0	32566	35335	32797	34614	32736	
2719	0	32846	36069	32754	43878	32584	
2720	0	32938	36266	32786	52088	32460	
2721	0	32989	37746	32861	47372	33200	
2722	0	33020	37579	32758	35900	33411	
2723	0	33182	36272	32668	26848	32890	
2724	0	33120	35101	32662	26729	32737	
2725	0	33120	33557	32565	27605	32743	
2726	0	33042	32530	32469	25045	32632	
2727	0	32728	31751	32503	24799	32583	
2728	0	32556	32043	32627	26094	33315	
2729	0	32880	31664	32655	28140	32825	
2730	0	32996	30567	32665	31864	32987	
2731	0	33009	29844	32583	33362	32991	
2732	0	32861	29511	32592	32864	32873	
2733	0	32678	28522	32711	32694	32970	
2734	0	32865	26790	32735	34503	33515	
2735	0	32877	27407	32800	35923	33575	
2736	0	32843	29918	32815	31439	33190	
2737	0	32837	32813	32893	31736	32770	
2738	0	32528	35397	32858	38672	31778	
2739	0	32562	37211	32734	44690	32048	
2740	0	32692	38134	32756	45037	31967	
2741	0	32826	38253	32774	43395	31687	
2742	0	32460	38380	32845	40081	32534	
2743	0	32416	37517	32775	24838	32999	
2744	0	32512	32758	32693	14101	32912	
2745	0	32640	27493	32673	20641	33017	
2746	0	32881	25238	32884	31552	33091	
2747	0	33127	26661	32921	34738	32950	
2748	0	33200	28927	32845	30575	33200	
2749	0	33395	31382	32746	29743	33255	
2750	0	33227	33351	32813	30509	33158	
2751	0	32914	33761	32855	31095	32619	
2752	0	32751	33287	32550	29647	33068	
2753	0	32536	33043	32531	31221	33657	
2754	0	32587	33407	32542	31909	33321	
2755	0	32617	34439	32590	32845	32517	
2756	0	32516	35220	32717	34115	32666	
2757	0	32416	35135	32773	35535	33611	
2758	0	32484	33779	32844	35607	32767	
2759	0	32536	33057	32791	36543	32293	
2760	0	32524	33251	32765	36737	32153	
2761	0	32391	34226	32807	38345	32633	
2762	0	32377	34211	32704	37051	32818	
2763	0	32616	34637	32263	36963	32609	
2764	0	32876	34519	32186	39719	31975	
2765	0	32893	33285	32705	34852	31777	
2766	0	33177	30935	32923	30298	32323	
2767	0	33302	29032	32858	28274	33357	
2768	0	33200	28542	32799	26203	33643	
2769	0	33032	29367	32793	25946	33008	
2770	0	32883	31175	32857	25714	33021	
2771	0	32772	31622	32671	29063	33508	
2772	0	32723	30949	32535	33637	33170	
2773	0	32628	29563	32640	37841	32603	
2774	0	32786	29609	32942	40638	32737	
2775	0	32912	31268	33048	35660	32709	
2776	0	33094	33240	32932	27900	32976	
2777	0	33109	34541	32465	24367	33139	
2778	0	32928	34895	32071	28705	32361	
2779	0	32899	35463	32276	32183	32449	
2780	0	32722	34503	32531	32493	32458	
2781	0	32690	33511	32805	34237	32386	
2782	0	32479	32195	32825	35433	32834	
2783	0	32329	31212	32832	35805	33402	
2784	0	32484	31168	32832	34360	32934	
2785	0	32632	33741	32933	33636	33218	
2786	0	32708	36614	32998	36331	33023	
2787	0	32603	38128	33073	36441	32850	
2788	0	32504	37033	33042	30778	33201	
2789	0	32569	35501	32868	31566	32749	
2790	0	32489	34371	32727	35669	32751	
2791	0	32685	32735	32642	35871	32911	
2792	0	32880	31068	32647	37481	33054	
2793	0	33080	29117	32662	40722	32628	
2794	0	33048	27745	32582	37551	32418	
2795	0	33196	28461	32596	31293	32628	
2796	0	33034	31003	32602	23019	32759	
2797	0	32979	32448	32658	21579	32717	
2798	0	32858	32318	32658	25223	32909	
2799	0	32600	32967	32752	26667	32669	
2800	0	32320	33759	32858	31187	32935	
2801	0	32223	34147	32859	31851	32915	
2802	0	32444	34425	32834	31455	32651	
2803	0	32788	35500	32812	30835	32857	
2804	0	32722	37245	32741	32077	33183	
2805	0	32733	38934	32816	37120	32953	
2806	0	32660	40443	32865	38106	32239	
2807	0	32640	40425	32827	34887	32858	
2808	0	32729	37125	32837	36595	32839	
2809	0	32932	31468	32860	36440	32775	
2810	0	33000	24947	32945	33979	32127	
2811	0	33048	21584	32871	34480	32445	
2812	0	32886	23149	32702	35151	33223	
2813	0	33120	24749	32688	31919	33199	
2814	0	33316	25531	32739	30427	33239	
2815	0	33277	27235	32695	29223	32642	
2816	0	33344	28438	32775	28199	32711	
2817	0	33144	28355	32711	28992	33079	
2818	0	32880	28793	32464	28507	32374	
2819	0	32790	30651	32539	28354	32590	
2820	0	32504	33193	32612	32967	33046	
2821	0	32728	34243	32661	38586	32738	
2822	0	32680	34832	32744	44862	32775	
2823	0	32765	35971	32805	49159	32985	
2824	0	32729	36679	32717	45937	32811	
2825	0	32484	38248	32680	34052	32483	
2826	0	32213	39209	32688	21542	32808	
2827	0	32349	38975	32711	20833	32939	
2828	0	32723	38355	32801	26102	33043	
2829	0	32650	37351	32803	26675	32960	
2830	0	32581	35804	32719	26747	32923	
2831	0	32628	34247	32687	27539	33095	
2832	0	32746	31910	32599	31373	33156	
2833	0	32843	30279	32758	38570	32868	
2834	0	32744	28750	32937	42687	32931	
2835	0	32676	29105	32809	44763	32531	
2836	0	32803	31321	32732	38109	32698	
2837	0	32852	34400	32730	27043	32986	
2838	0	32673	36352	32704	20124	32812	
2839	0	32680	37261	32807	23521	32771	
2840	0	32952	36253	32832	29028	32459	
2841	0	33014	34864	32887	37034	33133	
2842	0	32997	32225	32868	38878	32365	
2843	0	33080	29250	32815	32882	32978	
2844	0	32845	28268	32647	28409	32964	
2845	0	32393	30043	32736	28991	32931	
2846	0	32434	31635	32626	32520	32731	
2847	0	32766	31912	32710	38556	32997	
2848	0	32824	30652	32604	43453	33287	
2849	0	32994	29339	32573	41199	32655	
2850	0	33065	29357	32734	32071	32513	
2851	0	32873	30824	32807	24437	32632	
2852	0	32835	32709	32851	27756	32851	
2853	0	32608	32503	32727	35181	32056	
2854	0	32515	31431	32293	37537	32813	
2855	0	32685	31283	32139	35716	33077	
2856	0	32921	32848	32220	33113	32631	
2857	0	32888	34679	32135	31589	32659	
2858	0	32721	36038	32301	28827	32659	
2859	0	32622	35696	32653	25112	32991	
2860	0	32658	35166	32775	23163	33103	
2861	0	32857	32665	32775	28628	33447	
2862	0	32909	29526	32912	36580	32967	
2863	0	33014	26742	33033	40552	31943	
2864	0	33048	27734	33003	40497	33080	
2865	0	32784	31999	33063	39919	33011	
2866	0	32528	35335	33045	36443	32744	
2867	0	32572	36171	33010	30780	32775	
2868	0	32600	36752	32903	25497	32501	
2869	0	32414	37174	32829	29685	32633	
2870	0	32438	37478	32846	35458	32944	
2871	0	32767	37191	32763	37419	33234	
2872	0	32976	36544	32749	36231	32895	
2873	0	33076	35783	32725	32982	32492	
2874	0	32984	34149	32698	27362	32797	
2875	0	32760	33129	32660	21895	32885	
2876	0	32787	30522	32723	26648	32868	
2877	0	33037	27503	32758	34811	33004	
2878	0	33044	25547	32664	39121	32358	
2879	0	33128	25204	32793	40487	32303	
2880	0	33174	26034	32741	32978	32835	
2881	0	33272	28604	32699	24428	33693	
2882	0	32933	31972	32561	25039	33684	
2883	0	32946	32973	32580	33749	33039	
2884	0	33104	33661	32665	41433	32102	
2885	0	33096	32723	32775	45511	31533	
2886	0	33131	31706	32685	42814	32257	
2887	0	33146	30541	32713	35714	33203	
2888	0	33448	30312	32614	24650	33035	
2889	0	33129	31687	32726	18781	33240	
2890	0	32809	32502	32722	22659	33027	
2891	0	32464	32685	32793	31413	33373	
2892	0	32289	33399	32795	36423	33287	
2893	0	32238	34511	32757	35538	32850	
2894	0	32275	35379	32797	36216	33383	
2895	0	32212	36907	32818	34770	32690	
2896	0	32130	36031	32797	32517	31648	
2897	0	32170	34695	32855	27695	33021	
2898	0	32317	34193	33028	25551	33094	
2899	0	32434	33530	32987	29761	32979	
2900	0	32499	32019	32855	32455	33077	
2901	0	32390	30719	32851	32529	33442	
2902	0	32445	30823	32875	31938	33261	
2903	0	32320	31956	32891	32101	32561	
2904	0	32331	33477	32903	32579	32462	
2905	0	32356	36320	32937	34942	32768	
2906	0	32470	39009	32919	36947	32213	
2907	0	32748	39204	32889	38810	32393	
2908	0	32493	38543	32833	39347	32849	
2909	0	32370	35432	32775	38151	32872	
2910	0	32733	32613	32591	39387	32812	
2911	0	33023	30679	32489	37591	32526	
2912	0	33138	30037	32379	32417	32656	
2913	0	33081	29775	32499	28052	32860	
2914	0	32966	30391	32610	32587	32760	
2915	0	33122	31988	32670	36511	33223	
2916	0	33088	34904	32775	36631	33158	
2917	0	33003	35203	32735	33338	32903	
2918	0	33160	33210	32775	27173	32599	
2919	0	33240	30823	32711	24566	32656	
2920	0	33239	30189	32757	24901	33331	
2921	0	33106	30659	32775	27567	33907	
2922	0	32832	31559	32787	30659	33350	
2923	0	32598	32933	32662	34791	31683	
2924	0	32656	32135	32553	33023	31276	
2925	0	32964	29295	32663	30663	32748	
2926	0	33129	26946	32752	31139	33615	
2927	0	33044	26582	32913	33553	33504	
2928	0	32888	28255	32889	35223	32199	
2929	0	32647	31109	32746	34751	32079	
2930	0	32496	34609	32728	31239	32812	
2931	0	32440	36416	32910	28157	33118	
2932	0	32390	35973	32962	27579	31835	
2933	0	32634	32805	32882	31320	32997	
2934	0	32349	31008	32762	38620	33418	
2935	0	32652	30791	32538	44743	32789	
2936	0	32850	32371	32337	45802	32915	
2937	0	32742	35126	32530	39453	33261	
2938	0	33050	37645	32640	30312	33464	
2939	0	33234	38113	32499	24403	33485	
2940	0	33081	36186	32439	28690	33335	
2941	0	32924	34512	32451	30203	33023	
2942	0	32782	32090	32462	30039	33095	
2943	0	32736	29200	32548	30418	32536	
2944	0	32588	27315	32823	32231	31769	
2945	0	32697	27557	32907	34247	32659	
2946	0	33016	31181	32771	33018	32553	
2947	0	32910	34541	32815	31437	32297	
2948	0	32896	35216	32821	28602	32642	
2949	0	32577	34650	32771	27821	33210	
2950	0	32644	33716	32799	30167	32525	
2951	0	32870	31395	32855	32601	32263	
2952	0	33038	29122	32869	35384	32666	
2953	0	33050	28374	32851	41458	32921	
2954	0	32925	29050	32850	41824	33154	
2955	0	32888	30961	32860	38627	32763	
2956	0	32969	32981	32893	31553	32658	
2957	0	32742	33951	32738	25891	32743	
2958	0	32755	35151	32535	26166	32577	
2959	0	32594	37053	32630	29559	32749	
2960	0	32696	38003	32743	32103	32921	
2961	0	32547	39225	32794	32953	33147	
2962	0	32373	36249	32805	31281	33187	
2963	0	32396	31208	32760	32192	32813	
2964	0	32632	28030	32688	36443	32930	
2965	0	33069	28065	32759	37752	32903	
2966	0	33340	28807	32747	34948	32711	
2967	0	33088	29383	32833	34528	32755	
2968	0	32726	30791	32839	33233	33114	
2969	0	32906	32545	32620	33833	32902	
2970	0	32760	32083	32639	32618	33095	
2971	0	32590	31559	32698	33613	33287	
2972	0	32717	31694	32736	33541	33016	
2973	0	32529	32507	32820	37477	32896	
2974	0	32369	34242	32646	39255	33359	
2975	0	32400	35943	32672	32485	33306	
2976	0	32312	36840	32757	25221	32514	
2977	0	32610	37626	32677	21196	32160	
2978	0	32914	38407	32647	21543	32345	
2979	0	33001	39129	32839	28798	32761	
2980	0	32866	36717	32868	35847	32837	
2981	0	32901	32899	32793	39287	33042	
2982	0	32968	29456	32657	34755	32954	
2983	0	33083	26168	32650	29609	32544	
2984	0	32900	25351	32612	30505	32775	
2985	0	32827	27760	32706	30518	32866	
2986	0	32720	31568	32732	32488	32606	
2987	0	32774	34167	32775	36495	31910	
2988	0	32738	36617	32891	39341	32804	
2989	0	32585	36605	32907	41595	32819	
2990	0	32589	37183	33005	41527	32745	
2991	0	33026	37088	32658	36243	32150	
2992	0	33012	36534	32136	31797	32717	
2993	0	32770	34710	32263	35015	33106	
2994	0	32893	31104	32737	39524	33012	
2995	0	33105	29729	32858	36867	32738	
2996	0	33069	28850	32772	27248	32658	
2997	0	33064	27613	32799	20218	32922	
2998	0	32903	25494	32839	20555	32610	
2999	0	32857	23590	32847	23658	32420	
3000	0	32812	24299	32831	28738	32835	
3001	0	32622	27879	32813	31239	33275	
3002	0	32756	32800	32807	28654	32652	
3003	0	32792	38377	32790	28036	32873	
3004	0	32637	41472	32987	30599	33566	
3005	0	32626	42748	33061	32449	33427	
3006	0	32668	40285	33053	34896	33545	
3007	0	32480	36134	32816	40674	33230	
3008	0	32490	30491	32696	45725	32670	
3009	0	32720	26057	32461	42660	31735	
3010	0	32654	25225	32301	35710	32763	
3011	0	32766	26887	32402	32471	34227	
3012	0	32853	30069	32581	31842	32249	
3013	0	32672	34068	32707	33810	31968	
3014	0	32712	35974	32606	35193	33130	
3015	0	32469	37425	32507	36423	32993	
3016	0	32496	37969	32658	39495	32610	
3017	0	32476	38307	32857	39511	32943	
3018	0	32701	37938	32915	31536	32672	
3019	0	32548	34912	32936	22870	31707	
3020	0	32440	31106	32908	18272	32414	
3021	0	32927	27864	32933	18783	32943	
3022	0	33353	26952	32871	23968	33362	
3023	0	33671	27516	32658	31394	33149	
3024	0	33287	28974	32703	34338	33458	
3025	0	32866	32176	32613	38511	33253	
3026	0	32944	36030	32531	40230	32917	
3027	0	33043	38339	32553	39046	32498	
3028	0	33010	38279	32638	34362	32795	
3029	0	32966	37725	32667	31141	32898	
3030	0	32936	34331	32749	32049	33219	
3031	0	32944	28834	32802	36581	33078	
3032	0	33000	23587	32880	37203	32338	
3033	0	32976	21689	32775	37325	32199	
3034	0	32873	23469	32697	34322	32921	
3035	0	32720	28421	32941	25861	33248	
3036	0	32452	33551	32918	21267	32861	
3037	0	32357	37472	32867	26103	33210	
3038	0	32276	38998	32911	30805	32221	
3039	0	32162	38031	32898	34866	32263	
3040	0	32285	35807	32931	39647	32594	
3041	0	32496	35214	32758	45015	32603	
3042	0	32748	34069	32763	43289	32225	
3043	0	33181	33466	32608	34375	33442	
3044	0	32888	33584	32232	28200	34078	
3045	0	32786	33560	32343	24080	33004	
3046	0	32836	33535	32583	23751	32583	
3047	0	33024	32787	32691	27556	32595	
3048	0	32891	32067	32787	33602	32642	
3049	0	32792	31191	32875	35033	32355	
3050	0	32737	29711	33039	34625	32775	
3051	0	32674	29447	32934	35204	33462	
3052	0	32685	30967	32677	30811	33479	
3053	0	32620	34603	32527	32686	32863	
3054	0	32456	37260	32648	41146	32049	
3055	0	32448	39453	32803	44255	33021	
3056	0	32636	39781	32785	39059	33054	
3057	0	32628	37218	32717	29993	32413	
3058	0	32795	32599	32623	24628	32626	
3059	0	32982	29024	32666	22649	33559	
3060	0	32984	28711	32763	24416	33069	
3061	0	32962	29843	32568	29191	33014	
3062	0	32882	29252	32612	34702	33287	
3063	0	32887	29677	32653	36215	32675	
3064	0	32922	29138	32630	31269	32893	
3065	0	33033	27131	32647	24721	32898	
3066	0	33128	25788	32718	28062	32178	
3067	0	33071	26547	32687	31936	32848	
3068	0	32888	28630	32563	35399	33229	
3069	0	32856	31960	32620	40560	33874	
3070	0	32774	32809	32775	44203	33670	
3071	0	32838	33633	32815	39670	30493	
3072	0	32739	35204	32803	38359	30805	
3073	0	32568	38134	32774	39837	32568	
3074	0	32648	40420	32824	35140	32745	
3075	0	32625	42200	32890	25769	33004	
3076	0	32704	40280	32884	20475	33090	
3077	0	32800	33960	32787	26039	32736	
3078	0	32696	28490	32745	30677	32997	
3079	0	32948	26866	32761	31131	32737	
3080	0	33058	28922	32738	30087	33287	
3081	0	33119	32007	32708	29853	33347	
3082	0	33006	33499	32741	31799	33259	
3083	0	32651	33204	32688	34768	32967	
3084	0	32492	31273	32767	36141	32531	
3085	0	32362	29163	32677	35245	32349	
3086	0	32194	28739	32556	33780	32159	
3087	0	32351	29951	32463	32924	32080	
3088	0	32285	32007	32451	33091	32431	
3089	0	32288	35171	32557	35216	32806	
3090	0	32534	39365	32808	36840	32551	
3091	0	32731	41795	32903	37383	33136	
3092	0	32596	41422	32866	34176	33656	
3093	0	32541	37747	32809	31967	32011	
3094	0	32711	33479	32839	34929	32741	
3095	0	33143	31767	32839	33185	33368	
3096	0	33186	31552	32797	27942	33028	
3097	0	33004	32801	32704	31899	33049	
3098	0	32988	35543	32698	31652	33373	
3099	0	32934	37101	32711	30669	33410	
3100	0	33065	35586	32768	35542	32339	
3101	0	33146	32031	32800	39961	33069	
3102	0	33040	27501	32793	37816	33076	
3103	0	33068	24418	32732	29957	32928	
3104	0	32860	23370	32760	22713	33108	
3105	0	32767	24195	32930	21551	33603	
3106	0	32583	26779	32935	26281	33495	
3107	0	32454	29791	32989	30738	33219	
3108	0	32568	31801	32835	31937	32545	
3109	0	32581	33127	32741	32517	32123	
3110	0	32816	34795	32587	36354	31733	
3111	0	32890	35847	32660	42208	32764	
3112	0	32786	36359	32743	42395	33019	
3113	0	32796	34950	32809	38775	32663	
3114	0	32918	33759	32848	34496	32467	
3115	0	32736	33863	32751	33135	33003	
3116	0	32801	33746	32726	32007	33816	
3117	0	32930	32977	32825	28707	33658	
3118	0	32930	31437	32816	26205	33341	
3119	0	32954	32107	32933	30230	32928	
3120	0	32658	33463	32813	32071	32736	
3121	0	32376	34783	32746	32587	32675	
3122	0	32088	34861	32846	28692	32409	
3123	0	32280	33415	32944	25740	32157	
3124	0	32648	30898	32896	29548	32528	
3125	0	32852	28819	32976	34223	32377	
3126	0	32775	29400	32889	36023	32003	
3127	0	32904	32615	32546	35389	32132	
3128	0	32904	36626	31876	32023	32750	
3129	0	32875	39056	31579	33789	32952	
3130	0	32824	41570	32263	38742	33330	
3131	0	32860	42693	32805	43794	32833	
3132	0	32838	40429	33017	46011	33205	
3133	0	32759	35154	32976	43042	33543	
3134	0	33001	29949	32976	30476	33840	
3135	0	32996	25095	32976	17148	33253	
3136	0	32967	20971	32908	17656	32804	
3137	0	32923	20571	32871	22802	32463	
3138	0	32720	21817	32919	27139	32832	
3139	0	32762	25386	32868	35399	33320	
3140	0	32717	29523	32775	39449	33081	
3141	0	32675	31133	32735	37189	32775	
3142	0	32876	32421	32819	38039	32543	
3143	0	32866	34559	32832	38587	32709	
3144	0	32855	36392	32845	35231	32589	
3145	0	32775	37035	32819	30919	32517	
3146	0	32818	34310	32395	26868	32733	
3147	0	32711	30313	32362	23321	32805	
3148	0	32743	28095	32728	22432	31943	
3149	0	32825	29167	32935	26786	32487	
3150	0	32678	31600	32970	34564	32198	
3151	0	32742	34241	32976	42455	33238	
3152	0	32583	36200	32921	46312	33122	
3153	0	32306	36638	33023	45027	33069	
3154	0	32455	37289	32987	41095	32923	
3155	0	32482	39517	32910	33080	33244	
3156	0	32912	42375	33014	25186	32637	
3157	0	32944	44864	33044	22770	31974	
3158	0	33000	45127	33097	28537	32712	
3159	0	32769	42763	33126	35013	32870	
3160	0	33208	38681	32821	30384	32644	
3161	0	33557	32301	32188	25110	32496	
3162	0	33316	25191	31884	22915	32646	
3163	0	33266	18023	32028	26068	33146	
3164	0	33460	13098	31944	32108	32961	
3165	0	33200	14116	32348	40455	32442	
3166	0	32716	18115	32896	46158	32704	
3167	0	32554	21658	32973	45947	32720	
3168	0	32492	26365	32987	40452	32251	
3169	0	32485	32211	33077	32770	33249	
3170	0	32495	36029	33016	28050	32992	
