# OpenSignals Text File Format
# {"00:07:80:3B:46:63": {"sensor": ["EMG", "EMG", "EMG", "EMG", "EMG"], "device name": "00:07:80:3B:46:63", "column": ["nSeq", "DI", "CH1", "CH2", "CH3", "CH4", "CH5"], "sync interval": 2, "time": "10:53:44.292", "comments": "", "device connection": "BTH00:07:80:3B:46:63", "channels": [1, 2, 3, 4, 5], "date": "2017-4-28", "mode": 0, "digital IO": [0, 1], "firmware version": 770, "device": "biosignalsplux", "position": 0, "sampling rate": 1000, "label": ["CH1", "CH2", "CH3", "CH4", "CH5"], "resolution": [16, 16, 16, 16, 16], "special": [{}, {}, {}, {}, {}]}}
# EndOfHeader
0	0	32838	32135	32767	32503	32719	
1	0	32787	32327	32695	32589	32883	
2	0	32717	32805	32753	33027	32759	
3	0	32765	33185	32817	33157	32967	
4	0	32720	33050	32775	33183	33019	
5	0	32805	33185	32775	33415	32849	
6	0	32804	33199	32775	33125	32662	
7	0	32805	32899	32741	32839	32669	
8	0	32796	33053	32761	33110	32902	
9	0	32740	32977	32755	33157	32947	
10	0	32775	32903	32732	33037	32847	
11	0	32775	32565	32775	33249	32873	
12	0	32790	32691	32762	32975	32950	
13	0	32820	32669	32763	32187	32930	
14	0	32829	32853	32803	31967	32967	
15	0	32784	32823	32745	31683	32902	
16	0	32729	33095	32795	31913	32825	
17	0	32740	32898	32691	32289	32976	
18	0	32751	32903	32669	32795	33085	
19	0	32688	32933	32799	32947	32923	
20	0	32746	32381	32765	33183	32759	
21	0	32805	32371	32811	33207	32734	
22	0	32936	32179	32711	33131	32703	
23	0	32989	32029	32807	33072	32599	
24	0	32811	32219	32711	32873	32743	
25	0	32738	32484	32665	32190	32899	
26	0	32772	32705	32775	31943	32861	
27	0	32767	32981	32815	32423	32849	
28	0	32730	33065	32775	32327	32717	
29	0	32725	32979	32739	32371	32793	
30	0	32752	33155	32659	33320	32899	
31	0	32711	32903	32775	34433	32993	
32	0	32717	32557	32775	35266	32815	
33	0	32700	32377	32759	34797	32691	
34	0	32706	32050	32768	33287	32730	
35	0	32775	32365	32688	32223	32850	
36	0	32840	32445	32763	32108	32917	
37	0	32887	32849	32603	31829	33043	
38	0	32800	33024	32695	31804	32940	
39	0	32775	33404	32583	31733	33007	
40	0	32802	33267	32791	32064	33005	
41	0	32772	33123	32699	32261	32839	
42	0	32728	32775	32795	32455	32711	
43	0	32792	32709	32761	33043	33063	
44	0	32745	32409	32743	33275	33001	
45	0	32868	31935	32775	33558	32701	
46	0	32916	31858	32658	33889	32604	
47	0	32812	31815	32699	33794	32679	
48	0	32800	31939	32596	33047	32679	
49	0	32801	32135	32759	32375	33027	
50	0	32770	32379	32775	32217	32975	
51	0	32711	32855	32751	32555	32807	
52	0	32668	33003	32734	32767	32824	
53	0	32789	33223	32618	32595	32743	
54	0	32800	33559	32742	32365	32701	
55	0	32760	33415	32759	32307	32723	
56	0	32856	33333	32635	32467	32723	
57	0	32813	32801	32691	32524	32930	
58	0	32775	32415	32583	32511	33025	
59	0	32772	32103	32815	32359	32887	
60	0	32849	31634	32823	32612	32767	
61	0	32800	31639	32683	33360	32741	
62	0	32762	32055	32722	33622	32749	
63	0	32836	32263	32581	33443	32993	
64	0	32880	32829	32721	33562	33041	
65	0	32746	32847	32703	32857	32953	
66	0	32744	32871	32775	32468	32860	
67	0	32802	32951	32799	32599	32743	
68	0	32844	32647	32637	32549	32747	
69	0	32895	33015	32719	32683	32793	
70	0	32825	33127	32687	32833	32902	
71	0	32723	33198	32767	32715	32833	
72	0	32672	32903	32711	32565	32875	
73	0	32665	32813	32623	32617	32939	
74	0	32745	32552	32735	32717	32946	
75	0	32872	32559	32710	32767	32903	
76	0	32835	32655	32635	32708	32723	
77	0	32756	32426	32722	32647	32703	
78	0	32732	32109	32621	32634	32767	
79	0	32707	32035	32775	32642	32803	
80	0	32819	32122	32775	32914	32991	
81	0	32867	32556	32647	33015	33025	
82	0	32873	33107	32707	33070	32947	
83	0	32840	33247	32697	33127	32911	
84	0	32782	33199	32775	32741	32739	
85	0	32741	33178	32839	31987	32815	
86	0	32711	32995	32635	31808	32863	
87	0	32688	32455	32696	32083	32947	
88	0	32739	32287	32775	32327	32775	
89	0	32758	32225	32655	32533	32759	
90	0	32818	32466	32730	33074	33043	
91	0	32785	32821	32513	33595	33064	
92	0	32741	33164	32762	33895	33005	
93	0	32737	33234	32675	34131	32637	
94	0	32696	33071	32719	33851	32623	
95	0	32773	32371	32795	33575	32824	
96	0	32795	31719	32581	33551	32960	
97	0	32839	31635	32835	33110	32839	
98	0	32874	32231	32775	32757	32835	
99	0	32838	32451	32627	32314	32798	
100	0	32816	32646	32775	32135	33035	
101	0	32853	32687	32885	32064	33058	
102	0	32855	32527	32613	32295	32991	
103	0	32862	32279	32720	32471	33059	
104	0	32753	32647	32642	32711	33077	
105	0	32795	32631	32762	32831	32979	
106	0	32758	32739	32799	32795	32979	
107	0	32791	32961	32741	32686	32934	
108	0	32832	32839	32795	32494	32913	
109	0	32724	33030	32699	32407	32711	
110	0	32775	32977	32759	32495	32729	
111	0	32713	33075	32619	32313	32889	
112	0	32740	33319	32711	32315	32935	
113	0	32773	33223	32581	32762	32801	
114	0	32809	33193	32772	33226	32760	
115	0	32898	32835	32647	33215	32855	
116	0	32768	32611	32791	33110	33074	
117	0	32718	32735	32775	32917	33117	
118	0	32693	32637	32701	32807	33061	
119	0	32729	32475	32667	32463	32932	
120	0	32850	32418	32583	32139	32775	
121	0	32879	32245	32759	32031	32679	
122	0	32861	32690	32595	32297	32662	
123	0	32749	32979	32698	32610	32617	
124	0	32698	33195	32687	32855	32516	
125	0	32642	33163	32725	33018	32731	
126	0	32669	32755	32672	33250	32537	
127	0	32737	32259	32747	33357	32675	
128	0	32872	31791	32711	33266	32915	
129	0	32876	31663	32764	32850	32870	
130	0	32927	31607	32807	32623	32963	
131	0	32809	31986	32571	32613	32967	
132	0	32747	32703	32727	32245	32837	
133	0	32696	33056	32615	32243	32824	
134	0	32707	33371	32703	32898	32925	
135	0	32649	33159	32636	33723	33006	
136	0	32725	33223	32775	33475	32867	
137	0	32775	32925	32630	33339	32790	
138	0	32763	32727	32751	33007	32995	
139	0	32824	32531	32640	33329	32818	
140	0	32839	32361	32719	34151	32795	
141	0	32840	32327	32722	34439	32934	
142	0	32808	32111	32723	32576	32653	
143	0	32812	31899	32720	31475	32959	
144	0	32835	32248	32695	31596	32775	
145	0	32786	32523	32608	32374	32981	
146	0	32775	32792	32751	33012	32813	
147	0	32837	32717	32662	32831	32721	
148	0	32775	32707	32771	32679	32906	
149	0	32755	32813	32794	32523	32745	
150	0	32717	32898	32717	32263	32803	
151	0	32672	33175	32740	32101	32943	
152	0	32658	33168	32696	32131	32857	
153	0	32696	33139	32749	32261	32567	
154	0	32661	33315	32746	32681	32733	
155	0	32758	33278	32774	32919	32967	
156	0	32755	33591	32761	33031	32898	
157	0	32826	33159	32643	33287	32903	
158	0	32857	32979	32663	33287	33019	
159	0	32773	32205	32582	32507	32836	
160	0	32812	31826	32831	32623	32798	
161	0	32899	31431	32774	32427	32757	
162	0	32833	31527	32843	32310	32971	
163	0	32838	31591	32747	32496	32775	
164	0	32818	31539	32775	32599	32917	
165	0	32865	31474	32727	32423	32851	
166	0	32740	31767	32731	32681	32807	
167	0	32740	32146	32795	32455	32839	
168	0	32805	32647	32683	32355	32978	
169	0	32832	33019	32724	33211	33063	
170	0	32803	33095	32745	33922	33019	
171	0	32744	33383	32743	33816	32799	
172	0	32715	33326	32626	34246	32623	
173	0	32801	33167	32732	34127	32902	
174	0	32847	33339	32643	33701	32953	
175	0	32879	33172	32711	33222	32747	
176	0	32815	33223	32583	32717	32863	
177	0	32763	32931	32688	32427	32797	
178	0	32791	33223	32599	32257	32707	
179	0	32772	33110	32694	32179	32787	
180	0	32711	32871	32633	32288	33007	
181	0	32744	32384	32711	31931	33101	
182	0	32809	32171	32722	31627	32825	
183	0	32753	31879	32789	31675	32545	
184	0	32696	32047	32711	31699	32963	
185	0	32765	32141	32775	31815	33120	
186	0	32744	32659	32571	32481	32687	
187	0	32744	32833	32754	33327	32922	
188	0	32824	32929	32620	34183	33142	
189	0	32798	32767	32669	35070	32903	
190	0	32801	32915	32591	35048	32583	
191	0	32834	32985	32717	33007	32675	
192	0	32874	32967	32611	31823	32711	
193	0	32766	32789	32707	32018	32523	
194	0	32741	32803	32522	32525	32473	
195	0	32689	32967	32672	32895	32651	
196	0	32680	32995	32615	33143	32871	
197	0	32698	32979	32749	33146	32917	
198	0	32743	32755	32647	32965	32835	
199	0	32761	32981	32743	32665	32867	
200	0	32751	33027	32813	31767	32903	
201	0	32809	33055	32807	31127	32989	
202	0	32837	32827	32753	31707	32987	
203	0	32771	32134	32589	31975	32967	
204	0	32804	31936	32705	32391	32985	
205	0	32849	32013	32638	33269	32983	
206	0	32876	32347	32775	33312	33007	
207	0	32827	32251	32789	33718	33062	
208	0	32848	31675	32775	34019	33155	
209	0	32845	31608	32770	33001	33011	
210	0	32850	31353	32597	32231	32727	
211	0	32879	31287	32731	32548	32987	
212	0	32775	31821	32598	32939	32985	
213	0	32848	32083	32745	33189	32875	
214	0	32824	32519	32820	33223	32748	
215	0	32761	32813	32685	32875	32853	
216	0	32890	33143	32725	33115	32941	
217	0	32801	33551	32566	33595	32823	
218	0	32685	33541	32711	33313	32681	
219	0	32754	33758	32640	32541	32706	
220	0	32701	33526	32703	32362	32931	
221	0	32803	33365	32691	32485	32851	
222	0	32792	33209	32799	32599	32679	
223	0	32742	32883	32797	32687	32845	
224	0	32672	32978	32678	32559	32935	
225	0	32749	32687	32750	32583	32946	
226	0	32764	32411	32595	32987	32677	
227	0	32807	32135	32739	32891	32760	
228	0	32819	32085	32606	32535	32967	
229	0	32808	32571	32775	32386	32999	
230	0	32769	32645	32790	32559	32997	
231	0	32775	32731	32749	32819	32767	
232	0	32794	32861	32805	32853	32669	
233	0	32684	32989	32799	32647	32795	
234	0	32754	32859	32791	32579	32966	
235	0	32787	32995	32583	32685	32893	
236	0	32809	33005	32764	32999	32775	
237	0	32775	33238	32643	33103	33023	
238	0	32701	33240	32711	32593	33277	
239	0	32733	33077	32646	31653	33131	
240	0	32708	33153	32721	31687	32869	
241	0	32711	33040	32683	31571	32990	
242	0	32706	33263	32769	31710	32741	
243	0	32807	33186	32771	32071	32549	
244	0	32712	33151	32757	32242	32923	
245	0	32845	32809	32759	33215	33151	
246	0	32845	32065	32775	34695	33101	
247	0	32853	31235	32732	35101	33185	
248	0	32827	30877	32593	35783	33397	
249	0	32801	31149	32664	34789	33373	
250	0	32932	31232	32595	34171	32666	
251	0	32979	31343	32793	32941	32518	
252	0	32786	31766	32691	32055	32793	
253	0	32805	32223	32789	32181	32610	
254	0	32799	33106	32727	31661	31785	
255	0	32793	33336	32707	31195	31193	
256	0	32759	33543	32787	31599	31175	
257	0	32800	33331	32631	32067	32419	
258	0	32791	32889	32687	32946	33381	
259	0	32681	32951	32540	33711	34115	
260	0	32741	32581	32720	33421	34227	
261	0	32903	32588	32639	33287	34019	
262	0	32940	32647	32821	33403	33615	
263	0	32824	32741	32802	33147	32533	
264	0	32757	32835	32755	32167	31167	
265	0	32740	32469	32811	32155	31193	
266	0	32800	32321	32614	31999	31623	
267	0	32839	32183	32698	31771	32630	
268	0	32746	32595	32617	31427	33159	
269	0	32713	32823	32801	31295	32967	
270	0	32698	32927	32719	32007	32658	
271	0	32809	32751	32786	33415	32785	
272	0	32751	32562	32787	33607	33309	
273	0	32672	33126	32645	33511	33327	
274	0	32694	33479	32662	34077	33155	
275	0	32685	33818	32591	34700	33315	
276	0	32766	34041	32711	34543	33274	
277	0	32772	33415	32711	33655	33305	
278	0	32738	32550	32759	32499	33287	
279	0	32769	31695	32822	31830	33255	
280	0	32764	31019	32553	31875	32898	
281	0	32839	31127	32751	32345	32805	
282	0	32867	31579	32789	32107	32796	
283	0	32830	31843	32847	31497	32919	
284	0	32752	32263	32815	31437	33089	
285	0	32775	32850	32795	32499	33065	
286	0	32821	33061	32770	33727	32967	
287	0	32843	33395	32691	34395	32905	
288	0	32801	33351	32667	34123	32877	
289	0	32725	33229	32645	33125	32789	
290	0	32738	33426	32595	32243	32668	
291	0	32686	33459	32581	31891	32751	
292	0	32702	33525	32674	32334	32935	
293	0	32749	33147	32643	32931	33052	
294	0	32826	33093	32651	32675	32997	
295	0	32866	32797	32683	32379	32883	
296	0	32876	32291	32690	32572	32871	
297	0	32775	32187	32771	32390	32807	
298	0	32732	31993	32775	32746	32733	
299	0	32759	31902	32558	32943	32803	
300	0	32691	32029	32703	32933	32903	
301	0	32759	32261	32735	32513	32925	
302	0	32799	32545	32809	32211	32927	
303	0	32859	32738	32724	32963	32813	
304	0	32799	32551	32552	33091	32617	
305	0	32775	32483	32805	32951	32631	
306	0	32775	32414	32755	33163	32774	
307	0	32768	32405	32565	33462	32999	
308	0	32804	32343	32803	33344	33021	
309	0	32809	32295	32803	32890	32898	
310	0	32786	32480	32559	32199	32827	
311	0	32757	32947	32757	32107	32797	
312	0	32796	33153	32797	32435	32657	
313	0	32771	33415	32726	32747	32923	
314	0	32780	33371	32617	32803	32693	
315	0	32734	33117	32775	32576	32999	
316	0	32743	32513	32797	32928	33186	
317	0	32872	32111	32727	33245	33271	
318	0	32865	31943	32763	32995	33317	
319	0	32923	32283	32749	32877	33248	
320	0	32742	32591	32706	33019	33179	
321	0	32756	32775	32762	32911	33287	
322	0	32700	32493	32822	32837	33001	
323	0	32785	32327	32772	32369	32542	
324	0	32743	32321	32725	32139	32731	
325	0	32791	32154	32751	32334	32943	
326	0	32775	32823	32726	32339	32753	
327	0	32786	33054	32710	32301	32131	
328	0	32737	33183	32705	32579	31402	
329	0	32751	33095	32759	33095	31669	
330	0	32756	32955	32688	34013	32169	
331	0	32751	33021	32699	33931	32696	
332	0	32775	32871	32659	33569	33013	
333	0	32684	32871	32771	33144	33227	
334	0	32739	33095	32775	32485	33391	
335	0	32720	33078	32631	32027	33387	
336	0	32809	32837	32687	32166	33426	
337	0	32766	32625	32685	32583	33427	
338	0	32803	32263	32699	32487	33315	
339	0	32704	32098	32695	32246	33235	
340	0	32839	32097	32653	32001	33374	
341	0	32827	32283	32807	32535	33687	
342	0	32903	32543	32767	32992	34281	
343	0	32775	32623	32626	33259	34327	
344	0	32753	32623	32711	32611	34400	
345	0	32792	32731	32687	32229	34271	
346	0	32797	32819	32725	32563	32865	
347	0	32924	32979	32711	32711	31265	
348	0	32775	32757	32711	32559	29319	
349	0	32681	33146	32771	32835	29603	
350	0	32749	33269	32767	33333	32056	
351	0	32816	33539	32715	33995	32647	
352	0	32848	33165	32739	34265	32530	
353	0	32821	33391	32719	32151	32530	
354	0	32740	33639	32799	31479	32386	
355	0	32733	33581	32765	32664	32341	
356	0	32890	33617	32799	32925	32531	
357	0	32839	33001	32755	33035	33102	
358	0	32845	32137	32765	34925	32917	
359	0	32775	30759	32799	34352	33021	
360	0	32869	29695	32803	33359	32699	
361	0	32910	29290	32706	33567	32666	
362	0	32907	29675	32711	32957	32056	
363	0	32927	30303	32642	32615	32179	
364	0	32888	31223	32854	32519	32797	
365	0	32672	32655	32757	31502	33508	
366	0	32530	33237	32727	31199	33829	
367	0	32535	33273	32755	31772	33975	
368	0	32653	33238	32793	32411	33975	
369	0	32812	33271	32605	32993	33965	
370	0	32767	33383	32746	33531	33967	
371	0	32688	33415	32741	33955	34061	
372	0	32624	33755	32740	33027	33903	
373	0	32797	33843	32698	31774	33195	
374	0	32815	33691	32583	31232	33211	
375	0	32773	33430	32717	31674	34383	
376	0	32786	33059	32748	31631	35264	
377	0	32822	32950	32739	31735	33983	
378	0	32831	32445	32809	32158	31133	
379	0	32732	32647	32807	32919	29943	
380	0	32682	32807	32787	33107	30429	
381	0	32793	32891	32747	33859	30534	
382	0	32865	32423	32765	35118	29906	
383	0	32873	32418	32639	34695	29383	
384	0	32955	32583	32647	33895	30115	
385	0	32890	32583	32613	32922	32583	
386	0	32812	33055	32642	31367	33645	
387	0	32786	33210	32598	30863	34042	
388	0	32770	32851	32646	31599	34146	
389	0	32740	32887	32727	32306	33999	
390	0	32704	32662	32695	33264	33663	
391	0	32698	32677	32711	33615	33558	
392	0	32775	32471	32755	33363	33266	
393	0	32805	32507	32797	33287	33119	
394	0	32699	32415	32697	33013	33143	
395	0	32723	32499	32637	32652	33421	
396	0	32801	32423	32795	32598	33439	
397	0	32825	32611	32679	32498	33171	
398	0	32759	32547	32726	32327	33067	
399	0	32744	32615	32749	32277	33183	
400	0	32752	32807	32763	32427	33063	
401	0	32726	32891	32767	32607	32899	
402	0	32704	33199	32621	32919	32918	
403	0	32750	33111	32679	32749	33031	
404	0	32758	33002	32738	32321	33093	
405	0	32754	33231	32775	32589	33053	
406	0	32804	33063	32725	33303	32997	
407	0	32813	32748	32717	34403	33023	
408	0	32800	32615	32615	34066	33029	
409	0	32813	32391	32771	33369	32895	
410	0	32817	32251	32749	33749	32731	
411	0	32761	31998	32638	34143	32647	
412	0	32675	31831	32732	32997	33049	
413	0	32825	31519	32731	31764	33304	
414	0	32884	31477	32643	31781	32978	
415	0	32875	31539	32761	31431	32721	
416	0	32763	31771	32749	31103	32323	
417	0	32742	32197	32574	31107	32229	
418	0	32843	32891	32695	31007	32495	
419	0	32892	33407	32695	31197	32973	
420	0	32844	33839	32788	32555	33458	
421	0	32762	34203	32775	33383	33511	
422	0	32839	33988	32615	33843	33404	
423	0	32794	33503	32744	34239	33598	
424	0	32743	32895	32650	34565	34146	
425	0	32733	32898	32797	34591	34951	
426	0	32740	32809	32767	33668	35589	
427	0	32741	32179	32548	32621	35143	
428	0	32736	31559	32769	32624	34038	
429	0	32827	31175	32805	32863	30821	
430	0	32965	31255	32557	34130	28465	
431	0	32809	31521	32775	33879	29142	
432	0	32713	31513	32791	33111	31645	
433	0	32743	31533	32639	32445	32088	
434	0	32767	31891	32711	32191	31823	
435	0	32822	32223	32717	32180	31973	
436	0	32805	32199	32813	32387	32111	
437	0	32701	32681	32709	32135	32071	
438	0	32648	33275	32809	32625	31507	
439	0	32586	33659	32787	33405	29986	
440	0	32629	33438	32820	32160	31805	
441	0	32713	33686	32870	31487	35138	
442	0	32669	33637	32738	31859	35966	
443	0	32623	33658	32663	32699	34669	
444	0	32708	33337	32666	34008	31981	
445	0	32869	33399	32699	34718	30671	
446	0	32895	33459	32655	34311	31099	
447	0	32884	33489	32601	33785	31809	
448	0	32791	33645	32587	33157	32092	
449	0	32728	33391	32621	32077	33107	
450	0	32856	32993	32595	30143	33767	
451	0	32883	32413	32614	29687	33837	
452	0	32932	31870	32557	30342	33450	
453	0	32839	31705	32571	32663	33143	
454	0	32774	31203	32693	33616	33373	
455	0	32617	31547	32652	33327	33415	
456	0	32639	31815	32747	32960	33299	
457	0	32852	32127	32773	32981	33615	
458	0	32829	32555	32579	32951	33671	
459	0	32804	32944	32685	33069	33871	
460	0	32738	33331	32743	33149	34009	
461	0	32765	33375	32723	33223	34470	
462	0	32677	32994	32723	33138	35347	
463	0	32627	32410	32743	32951	35714	
464	0	32837	31713	32839	32533	34717	
465	0	32830	31635	32711	31839	34391	
466	0	32767	32219	32704	31855	34730	
467	0	32775	32557	32792	32386	33624	
468	0	32863	32837	32795	32939	31893	
469	0	32868	33351	32797	33491	29905	
470	0	32733	33247	32583	33121	28286	
471	0	32693	33117	32743	32391	27139	
472	0	32728	33363	32767	32091	29989	
473	0	32756	33215	32655	32097	32423	
474	0	32826	32735	32698	32975	33655	
475	0	32843	32495	32587	33948	32853	
476	0	32805	32339	32787	34567	33325	
477	0	32797	32635	32775	34747	33583	
478	0	32812	33316	32595	34480	32871	
479	0	32757	33723	32653	32496	31958	
480	0	32731	33557	32645	32007	30925	
481	0	32608	32747	32775	32001	30561	
482	0	32800	31647	32759	32927	32013	
483	0	32757	31107	32609	33793	32576	
484	0	32833	31007	32775	34797	32443	
485	0	32941	31531	32758	34687	33318	
486	0	32944	32095	32681	32759	33989	
487	0	32872	32499	32725	31571	33997	
488	0	32942	32717	32642	31739	33825	
489	0	32868	32885	32799	31435	33899	
490	0	32664	33259	32805	30983	33975	
491	0	32711	33335	32601	30527	33928	
492	0	32775	32979	32683	30235	33655	
493	0	32702	32662	32722	31543	33287	
494	0	32741	32499	32835	33270	33287	
495	0	32747	32349	32811	33677	34181	
496	0	32728	32749	32621	33181	34834	
497	0	32741	33145	32723	33825	34893	
498	0	32888	33543	32642	35771	34583	
499	0	32939	33463	32775	35573	33845	
500	0	32786	32887	32801	33153	32919	
501	0	32775	32047	32811	31096	31687	
502	0	32848	31321	32835	30802	29204	
503	0	32917	31303	32763	31748	29679	
504	0	32979	32003	32643	33063	31067	
505	0	33030	32866	32653	33283	31536	
506	0	32982	33347	32629	33022	31668	
507	0	32991	33699	32695	32818	32304	
508	0	32818	33511	32655	32647	32839	
509	0	32738	32903	32705	32163	33633	
510	0	32821	32495	32709	31725	33717	
511	0	33039	32443	32687	32493	33512	
512	0	33040	32616	32755	33539	33439	
513	0	32989	32403	32665	33559	33045	
514	0	32967	32333	32681	32603	33223	
515	0	32976	32374	32717	33730	33375	
516	0	32984	32571	32455	34083	32927	
517	0	32981	33157	32662	32849	32869	
518	0	33049	33495	32729	32071	32775	
519	0	32964	33407	32711	32379	33377	
520	0	32956	33211	32725	33227	33452	
521	0	32849	32959	32551	33599	33187	
522	0	32736	32314	32775	33145	32711	
523	0	32669	31593	32807	32723	32011	
524	0	32590	31147	32583	32519	32537	
525	0	32579	30989	32765	32225	33179	
526	0	32576	31321	32839	32047	33159	
527	0	32370	32079	32696	32234	32898	
528	0	32178	32722	32847	32361	33111	
529	0	32146	32997	33016	32775	33179	
530	0	32280	33335	32775	32679	33415	
531	0	32260	33399	32911	32543	34087	
532	0	32341	33714	32925	31777	34147	
533	0	32411	33747	32797	31730	33991	
534	0	32367	34145	32831	32903	34031	
535	0	32356	33825	32728	32941	33915	
536	0	32485	33633	32851	32117	31672	
537	0	32506	33279	32943	32946	30558	
538	0	32485	32883	32870	32620	30459	
539	0	32584	32259	32832	32211	32006	
540	0	32632	32233	32839	33430	32749	
541	0	32663	32516	32825	35549	33134	
542	0	32902	32869	32771	36219	36446	
543	0	32992	33373	32630	34027	39038	
544	0	32993	33113	32575	33759	38087	
545	0	33192	32125	32503	34015	35135	
546	0	33223	31716	32578	34055	34899	
547	0	33280	31525	32606	32398	33819	
548	0	33125	31775	32585	32663	28509	
549	0	33083	31749	32669	32583	26715	
550	0	32928	31451	32747	30390	29691	
551	0	32936	31379	32728	30338	33877	
552	0	32940	31638	32725	31651	35743	
553	0	32908	32189	32731	31742	35807	
554	0	32860	32850	32643	31511	37599	
555	0	32800	32883	32653	31904	38499	
556	0	32772	33069	32692	32075	34910	
557	0	32696	33265	32775	32793	29511	
558	0	32765	33283	32739	33206	24301	
559	0	32800	33265	32696	33482	19555	
560	0	32770	33119	32690	33747	22087	
561	0	32775	33174	32655	33412	23331	
562	0	32648	33253	32687	32722	27083	
563	0	32676	33199	32722	32306	30343	
564	0	32771	33282	32758	32311	31606	
565	0	32739	32879	32663	32372	34405	
566	0	32700	33057	32575	32525	36179	
567	0	32751	33351	32583	32812	36550	
568	0	32652	33547	32643	32622	35459	
569	0	32570	34003	32695	32699	35311	
570	0	32605	33784	32695	32979	36270	
571	0	32722	33154	32775	33175	36935	
572	0	32973	32390	32803	32490	35879	
573	0	32775	31559	32711	32015	36188	
574	0	32824	30919	32772	32688	33642	
575	0	32888	31223	32770	33203	30209	
576	0	32960	31427	32791	32435	32325	
577	0	33009	31129	32607	32839	33491	
578	0	32996	31036	32594	34503	33513	
579	0	32859	31531	32495	34714	33629	
580	0	32829	32277	32615	33927	32952	
581	0	32890	33115	32687	33351	33541	
582	0	32934	33409	32747	32466	33869	
583	0	32884	32887	32807	31122	33455	
584	0	32794	32642	32796	31435	31945	
585	0	32752	32055	32811	34450	32252	
586	0	32763	31969	32744	36863	32764	
587	0	32820	32199	32735	36139	33947	
588	0	32798	33251	32775	33626	34808	
589	0	32753	34141	32771	32007	32070	
590	0	32750	34621	32679	31639	29247	
591	0	32674	34689	32605	31395	31321	
592	0	32735	34719	32579	29875	31611	
593	0	32784	34029	32719	29807	32932	
594	0	32666	33122	32743	30033	34387	
595	0	32674	31542	32662	31636	33635	
596	0	32855	30751	32567	31973	33781	
597	0	32764	30611	32623	30191	32816	
598	0	32766	30883	32655	29183	32427	
599	0	32763	31177	32711	31914	32775	
600	0	32846	31579	32745	36147	30418	
601	0	32955	32861	32773	36224	29784	
602	0	32752	33863	32740	33343	32852	
603	0	32743	34239	32743	33551	35583	
604	0	32752	34247	32743	34935	35986	
605	0	32638	33922	32747	34739	36217	
606	0	32608	32844	32720	34435	37649	
607	0	32592	31917	32703	34559	36579	
608	0	32786	31059	32762	35163	33301	
609	0	32893	30358	32775	34923	32225	
610	0	33042	30253	32833	33725	31079	
611	0	32903	30573	32651	32255	30427	
612	0	32792	31623	32602	30823	30050	
613	0	32738	32869	32646	30773	31195	
614	0	32820	33607	32732	31898	27344	
615	0	32757	34083	32765	32471	27689	
616	0	32647	34785	32774	33523	28976	
617	0	32614	34779	32767	33394	30311	
618	0	32724	34579	32594	32975	31007	
619	0	32846	33507	32741	32017	33175	
620	0	32904	32566	32701	30807	35042	
621	0	32943	31925	32742	30780	35363	
622	0	32837	31472	32829	29793	34855	
623	0	32884	31474	32685	30275	34281	
624	0	32809	31568	32707	31846	33979	
625	0	32881	31602	32621	33607	33799	
626	0	32765	31653	32775	35215	33754	
627	0	32736	31926	32723	35111	34450	
628	0	32839	32455	32619	32871	34823	
629	0	32815	33541	32789	31743	33936	
630	0	32845	34233	32745	31239	33535	
631	0	32672	34161	32699	32263	33485	
632	0	32647	34077	32767	33362	33287	
633	0	32613	33949	32703	33911	32643	
634	0	32530	33776	32647	33283	33434	
635	0	32541	33808	32758	32207	34093	
636	0	32745	33255	32747	31993	34339	
637	0	32818	32313	32646	32197	33715	
638	0	32757	31005	32759	33115	32507	
639	0	32912	30157	32839	34134	31359	
640	0	33006	30128	32583	35972	31721	
641	0	32940	30849	32834	36359	31984	
642	0	32930	31879	32839	35202	33145	
643	0	32795	32615	32799	32403	33111	
644	0	32804	33037	32753	31568	31579	
645	0	32736	32845	32706	31428	29527	
646	0	32724	33083	32723	31083	31199	
647	0	32596	33523	32687	30186	32663	
648	0	32696	33558	32727	30075	33053	
649	0	32825	33823	32734	30963	33399	
650	0	32848	34022	32764	32583	33479	
651	0	32786	34095	32682	34786	33395	
652	0	32928	34111	32681	36333	33546	
653	0	32718	33217	32709	36007	33390	
654	0	32599	31886	32764	34907	33131	
655	0	32741	31151	32787	33159	33607	
656	0	32825	30927	32707	30963	34471	
657	0	32816	31447	32751	30459	34593	
658	0	32742	31981	32799	31683	34457	
659	0	32744	32561	32615	32256	34929	
660	0	32861	33093	32671	32079	33837	
661	0	33000	33241	32725	31853	30609	
662	0	32824	33282	32595	31197	30895	
663	0	32724	33456	32717	31992	32461	
664	0	32696	33347	32809	33405	34140	
665	0	32647	33247	32721	33494	33661	
666	0	32775	33331	32694	33991	32263	
667	0	32775	33357	32685	33479	32019	
668	0	32798	33443	32791	32855	35816	
669	0	32863	33605	32741	32626	33926	
670	0	32872	33970	32677	32509	30657	
671	0	32837	33983	32754	32263	29551	
672	0	32722	33232	32697	33223	29351	
673	0	32792	32070	32829	35675	29990	
674	0	32898	30258	32574	35873	30338	
675	0	32931	28832	32771	33712	32775	
676	0	32989	28999	32839	30957	33577	
677	0	32841	29995	32627	29895	33279	
678	0	32846	31438	32707	30163	31545	
679	0	32699	32508	32737	31017	31979	
680	0	32679	33159	32705	31623	33223	
681	0	32630	33627	32691	33299	30573	
682	0	32706	33934	32675	34673	28504	
683	0	32689	34197	32772	34234	31094	
684	0	32694	34711	32775	33179	33133	
685	0	32793	34967	32681	32495	34718	
686	0	32674	34906	32767	31650	35996	
687	0	32589	34792	32791	30585	35248	
688	0	32632	34562	32627	30347	34107	
689	0	32736	33487	32792	31222	33027	
690	0	32775	31998	32827	31493	33357	
691	0	32744	30631	32549	33407	33099	
692	0	32804	29667	32787	35677	33999	
693	0	32902	28880	32662	36918	35417	
694	0	33025	28557	32583	37053	35610	
695	0	32967	29542	32800	35102	35615	
696	0	32952	31190	32718	31840	36159	
697	0	32865	33248	32785	31053	38015	
698	0	32764	34729	32605	32029	36848	
699	0	32656	35425	32800	32367	35943	
700	0	32592	35000	32774	33773	33949	
701	0	32560	34209	32872	34762	25693	
702	0	32592	33375	32640	35789	23767	
703	0	32775	32283	32726	35527	26252	
704	0	32937	31199	32728	34130	30015	
705	0	33016	30466	32738	30394	32807	
706	0	33099	31207	32724	28925	34091	
707	0	33138	31623	32540	29625	34030	
708	0	32980	32123	32637	31095	32050	
709	0	32792	32263	32762	31063	29659	
710	0	32732	32327	32829	30701	31512	
711	0	32699	32608	32747	30799	33330	
712	0	32628	33211	32767	32809	30807	
713	0	32718	33699	32749	35273	33120	
714	0	32681	33871	32723	35111	32292	
715	0	32812	34387	32737	33573	31531	
716	0	32716	35200	32715	31787	30147	
717	0	32616	35476	32719	30674	31949	
718	0	32478	35051	32711	30394	33655	
719	0	32448	33884	32731	31081	34723	
720	0	32633	32199	32792	30073	35161	
721	0	32681	30643	32767	29963	33884	
722	0	32677	30031	32594	30773	33735	
723	0	32678	30370	32775	33529	33679	
724	0	32751	31367	32875	34868	33318	
725	0	32740	32071	32742	37163	33478	
726	0	32701	32291	32736	39099	33587	
727	0	32756	32146	32569	40370	33551	
728	0	32848	31830	32704	38483	33287	
729	0	32931	31823	32577	35330	33504	
730	0	32806	31853	32719	31687	34071	
731	0	32760	31877	32571	29941	33811	
732	0	32919	32567	32795	29328	33549	
733	0	32940	33127	32705	30579	32941	
734	0	32832	33422	32775	31623	33607	
735	0	32748	33586	32787	32755	33575	
736	0	32692	33005	32547	32499	33247	
737	0	32693	32735	32771	32146	33005	
738	0	32688	32884	32638	32347	33567	
739	0	32676	33287	32798	32311	34295	
740	0	32848	33887	32788	31378	33381	
741	0	32775	34439	32608	30459	32354	
742	0	32775	34707	32775	29753	33120	
743	0	32643	34838	32825	28641	32039	
744	0	32561	34857	32605	30435	32696	
745	0	32609	33963	32765	33177	33188	
746	0	32717	32119	32775	35158	33554	
747	0	32918	30791	32620	35015	33243	
748	0	33061	30486	32734	34387	33055	
749	0	32929	31106	32787	35098	33595	
750	0	32877	31963	32720	34034	32973	
751	0	32757	32855	32711	31029	34045	
752	0	32813	33534	32671	30887	34151	
753	0	32844	33568	32773	32903	32410	
754	0	32850	32637	32815	33703	30133	
755	0	32898	31565	32618	32967	27953	
756	0	32812	30534	32684	33033	32673	
757	0	32723	30041	32597	34119	33022	
758	0	32709	30833	32786	33935	32991	
759	0	32681	31615	32793	33031	31213	
760	0	32746	32157	32687	32787	29887	
761	0	32770	33092	32775	33970	32758	
762	0	32841	33472	32610	37595	33906	
763	0	32766	34179	32743	37556	31988	
764	0	32756	33836	32660	32762	32004	
765	0	32820	33575	32762	30363	31735	
766	0	32805	33287	32724	30462	30585	
767	0	32850	32671	32591	31039	31194	
768	0	32845	32243	32727	31635	31091	
769	0	32840	32131	32683	32009	34468	
770	0	32768	32071	32750	31751	35711	
771	0	32717	32253	32824	30957	34627	
772	0	32589	31785	32635	29865	33899	
773	0	32624	31859	32705	29974	32085	
774	0	32694	32530	32699	31591	29907	
775	0	32773	32795	32746	32967	31093	
776	0	32775	33207	32761	34854	32049	
777	0	32733	33431	32763	34499	31717	
778	0	32643	33216	32741	34366	33968	
779	0	32701	33347	32583	33057	34859	
780	0	32744	33211	32775	32919	33543	
781	0	32829	33373	32747	32614	32390	
782	0	32764	33387	32710	32143	32865	
783	0	32802	33312	32785	32882	33665	
784	0	32688	33671	32605	33913	34607	
785	0	32696	33701	32707	33318	35007	
786	0	32758	33127	32731	33023	35190	
787	0	32610	32975	32763	32756	34275	
788	0	32711	32923	32816	32800	34637	
789	0	32872	32711	32619	32199	34339	
790	0	32910	32807	32699	31198	34081	
791	0	32802	32592	32711	32197	36532	
792	0	32850	31830	32767	32929	34875	
793	0	32821	30727	32749	32644	31744	
794	0	32880	29902	32540	33341	29823	
795	0	32989	30130	32677	33637	28517	
796	0	32914	30994	32573	35774	27555	
797	0	32942	32347	32695	36679	28437	
798	0	32898	33318	32751	33890	31224	
799	0	32756	33879	32711	30769	34759	
800	0	32646	34141	32615	31227	35120	
801	0	32713	34183	32742	33826	34378	
802	0	32745	33607	32677	35650	32097	
803	0	32772	33651	32797	33863	32142	
804	0	32820	34023	32775	32825	33391	
805	0	32896	33613	32639	32249	34935	
806	0	32841	32955	32746	31303	37725	
807	0	32736	32304	32816	28677	35087	
808	0	32812	31603	32633	27791	31047	
809	0	32824	31259	32738	29405	32601	
810	0	32840	31698	32751	31843	32702	
811	0	32879	32615	32635	32428	31831	
812	0	32648	32873	32707	32425	33025	
813	0	32560	32691	32630	34355	32577	
814	0	32746	32409	32741	36047	30557	
815	0	32796	31787	32837	35674	27816	
816	0	32875	31699	32691	34998	28730	
817	0	32837	32415	32717	34292	31693	
818	0	32903	33238	32624	32839	34379	
819	0	32704	33836	32807	30957	35905	
820	0	32712	34135	32775	29634	32798	
821	0	32688	33629	32754	31785	31888	
822	0	32803	32677	32703	31895	32377	
823	0	32987	31779	32663	33159	33321	
824	0	32930	31451	32801	33715	33591	
825	0	32846	31769	32642	33991	36109	
826	0	32812	32661	32559	33963	36622	
827	0	32768	33338	32775	35053	34384	
828	0	32632	33406	32759	34917	32737	
829	0	32629	32626	32775	32352	32263	
830	0	32748	32263	32683	32049	31693	
831	0	32839	31999	32657	32361	30084	
832	0	32768	31983	32767	32515	31927	
833	0	32722	31731	32750	32410	31888	
834	0	32699	31347	32623	32238	33017	
835	0	32726	31273	32749	31152	36667	
836	0	32711	30975	32793	30768	38589	
837	0	32716	31559	32591	30713	40109	
838	0	32704	32391	32735	32257	39795	
839	0	32737	33544	32843	34164	29579	
840	0	32775	34483	32655	35603	26672	
841	0	32894	35087	32765	34502	29675	
842	0	32760	34989	32710	32889	27984	
843	0	32666	34560	32784	32678	22373	
844	0	32700	34066	32702	32263	27775	
845	0	32752	33286	32663	31868	30518	
846	0	32807	32631	32834	32167	32795	
847	0	32888	31361	32742	33351	33321	
848	0	32808	29935	32685	33899	32624	
849	0	32884	29507	32833	32549	32926	
850	0	32922	30679	32843	31569	35539	
851	0	32858	32109	32626	31213	35227	
852	0	32853	33168	32699	31919	33884	
853	0	32775	33887	32690	32699	35191	
854	0	32732	34195	32749	33759	35847	
855	0	32694	34311	32743	32632	34742	
856	0	32676	34077	32562	31677	33131	
857	0	32681	34093	32695	32283	31883	
858	0	32658	34047	32674	34119	30919	
859	0	32681	33385	32753	33451	29927	
860	0	32619	32195	32632	32528	32869	
861	0	32741	31308	32831	32051	35279	
862	0	32920	31310	32825	31751	35105	
863	0	32885	31587	32829	33311	33853	
864	0	32838	31742	32589	35013	34283	
865	0	32813	31998	32702	35389	32289	
866	0	32705	32924	32592	34021	30189	
867	0	32546	33735	32711	32287	30727	
868	0	32784	33937	32770	30952	32487	
869	0	33092	33317	32752	29825	33837	
870	0	33037	31634	32723	31469	33933	
871	0	32893	30511	32611	33309	33459	
872	0	32904	30707	32745	34944	33647	
873	0	32981	30977	32723	35079	33351	
874	0	33024	31660	32753	34099	33021	
875	0	32868	32374	32698	34468	34269	
876	0	32738	32809	32652	33688	35869	
877	0	32696	32641	32829	33223	37714	
878	0	32681	32985	32775	32807	38283	
879	0	32786	33423	32646	32827	38567	
880	0	32813	33624	32739	32728	35240	
881	0	32717	33280	32749	31547	29861	
882	0	32617	33206	32813	30022	29435	
883	0	32632	33757	32795	30441	27748	
884	0	32648	34025	32675	32405	28534	
885	0	32586	34201	32735	33765	28100	
886	0	32672	34439	32641	32937	24963	
887	0	32715	34139	32746	31847	26144	
888	0	32804	33631	32737	31081	32632	
889	0	32746	33243	32606	30709	35203	
890	0	32809	33211	32719	31567	36027	
891	0	32877	33062	32729	32932	35759	
892	0	32838	33065	32771	34823	36197	
893	0	32927	33259	32807	34962	35999	
894	0	33032	32319	32637	33851	34723	
895	0	32905	31995	32672	34035	34225	
896	0	32775	31148	32605	34575	31963	
897	0	32931	29788	32765	33312	26941	
898	0	33116	28842	32662	31212	23610	
899	0	32937	29028	32583	30163	27463	
900	0	32715	29875	32772	30803	32559	
901	0	32594	31063	32790	32339	35092	
902	0	32600	32087	32623	33074	36208	
903	0	32669	33085	32775	32259	34990	
904	0	32636	33595	32820	31488	32455	
905	0	32492	33733	32851	33769	32713	
906	0	32600	33887	32800	36839	36573	
907	0	32715	33907	32565	37839	39047	
908	0	32691	33765	32707	35885	35867	
909	0	32797	34050	32731	34939	33917	
910	0	32868	34127	32728	33089	35067	
911	0	32768	34115	32775	30100	34379	
912	0	32835	34448	32634	29843	31579	
913	0	32775	34131	32773	31575	31531	
914	0	32678	32767	32678	31867	33203	
915	0	32853	31259	32794	31672	37501	
916	0	32837	30294	32664	31937	39503	
917	0	32861	30727	32730	31941	36206	
918	0	32775	31931	32651	32614	30184	
919	0	32752	33172	32691	31909	28063	
920	0	32882	33831	32677	31547	29934	
921	0	32808	34298	32792	31565	30310	
922	0	32698	34703	32757	31981	27511	
923	0	32745	34438	32569	31061	30391	
924	0	32832	33991	32735	30822	29593	
925	0	32722	33519	32807	32101	28417	
926	0	32570	32212	32691	33639	32500	
927	0	32647	30175	32796	35790	29168	
928	0	32870	29341	32611	35874	26520	
929	0	32877	30241	32765	36642	28258	
930	0	32756	32101	32608	34139	32861	
931	0	32736	33614	32711	32682	32781	
932	0	32775	34119	32758	31751	31969	
933	0	32874	33203	32680	31919	36647	
934	0	32945	32093	32711	32732	38055	
935	0	32882	31771	32608	33212	37011	
936	0	32955	31991	32767	32772	37957	
937	0	33056	32297	32743	31449	36227	
938	0	32918	32103	32774	30618	33147	
939	0	32818	31718	32549	31847	29561	
940	0	32704	31739	32728	33703	32071	
941	0	32745	31687	32690	33266	34603	
942	0	32677	31999	32835	31975	35167	
943	0	32725	32444	32741	32156	34617	
944	0	32748	32263	32637	31619	29599	
945	0	32851	32507	32690	31268	28407	
946	0	32902	33118	32693	34520	31464	
947	0	32690	33399	32800	35469	33829	
948	0	32616	33808	32731	37871	33325	
949	0	32573	34473	32590	37925	32979	
950	0	32624	34707	32753	35175	34017	
951	0	32650	34467	32697	33219	34823	
952	0	32865	34126	32731	31422	35270	
953	0	32846	33703	32745	29840	36026	
954	0	32820	33423	32767	27697	34717	
955	0	32912	33383	32784	28845	36807	
956	0	32908	32632	32635	32178	36843	
957	0	32846	32295	32685	32427	37251	
958	0	32668	32341	32652	32319	37459	
959	0	32612	32543	32775	32237	33078	
960	0	32579	32337	32807	33829	28059	
961	0	32707	31779	32622	34691	26959	
962	0	32918	31354	32787	33238	25260	
963	0	32976	31050	32754	30622	22321	
964	0	33065	31236	32789	31019	24221	
965	0	33037	31425	32720	31943	29680	
966	0	32912	32263	32630	32053	31695	
967	0	32740	33903	32734	33442	35031	
968	0	32587	34743	32786	34112	37039	
969	0	32480	34231	32607	34281	36211	
970	0	32448	32631	32579	33680	36295	
971	0	32408	30927	32713	32230	38068	
972	0	32566	30203	32849	31174	40567	
973	0	32758	30016	32771	33037	39117	
974	0	32789	30215	32703	33043	34871	
975	0	32855	31019	32713	33646	30587	
976	0	32937	31354	32747	34055	29799	
977	0	32925	32043	32751	33627	30403	
978	0	32902	33177	32720	33430	34023	
979	0	32736	33794	32711	33191	36026	
980	0	32733	33746	32643	32345	35719	
981	0	32767	33719	32577	32547	37353	
982	0	32752	33853	32663	33735	33319	
983	0	32792	34350	32711	33658	29505	
984	0	32818	35021	32764	32855	21955	
985	0	32805	35330	32741	32615	22337	
986	0	32800	34938	32685	32741	29230	
987	0	32716	33737	32763	31841	34106	
988	0	32805	32421	32813	32276	30322	
989	0	32883	32519	32775	32829	33431	
990	0	32733	33671	32800	33753	34812	
991	0	32654	34029	32701	33862	33347	
992	0	32708	33023	32706	33309	28049	
993	0	32772	32017	32658	31735	30070	
994	0	32898	30883	32775	31583	39972	
995	0	32891	29847	32797	31751	41559	
996	0	33037	30245	32775	30904	43197	
997	0	33060	31082	32829	31323	38576	
998	0	32893	31570	32735	32009	36045	
999	0	32705	32083	32640	32420	33957	
1000	0	32628	33021	32592	33095	26421	
1001	0	32574	33348	32671	33761	18412	
1002	0	32642	33125	32785	32755	19508	
1003	0	32699	32237	32792	32135	24359	
1004	0	32753	31745	32770	32934	26827	
1005	0	32820	31450	32813	33368	30253	
1006	0	32861	32263	32795	33175	32726	
1007	0	32692	32981	32739	33767	31583	
1008	0	32726	32759	32681	33450	31707	
1009	0	32756	33115	32717	32773	34966	
1010	0	32706	33717	32704	33055	40336	
1011	0	32804	34080	32726	35567	42072	
1012	0	32775	34270	32752	37154	42247	
1013	0	32861	33775	32775	36177	39111	
1014	0	32768	33217	32736	33690	37365	
1015	0	32818	32971	32838	31181	36475	
1016	0	32773	32882	32729	29953	26915	
1017	0	32706	32154	32619	29849	21097	
1018	0	32838	32090	32709	30261	28260	
1019	0	32947	32661	32711	30935	29745	
1020	0	32936	33742	32710	30425	32891	
1021	0	32801	34538	32673	30663	35828	
1022	0	32654	34427	32713	32333	35068	
1023	0	32644	33390	32690	36240	35200	
1024	0	32603	32143	32704	37677	38279	
1025	0	32619	30998	32711	36731	37199	
1026	0	32720	30587	32669	34280	35429	
1027	0	32841	30605	32792	31330	32929	
1028	0	32860	31221	32795	30451	33248	
1029	0	32920	31975	32829	28928	30955	
1030	0	32786	33280	32775	29632	28446	
1031	0	32800	33651	32721	31895	30481	
1032	0	32875	34205	32655	33378	32139	
1033	0	33040	34375	32730	33780	29959	
1034	0	33122	34287	32620	33111	33176	
1035	0	33125	33558	32760	32647	38534	
1036	0	32983	32593	32805	33326	41138	
1037	0	32653	31120	32559	32487	40775	
1038	0	32595	29905	32748	32077	41239	
1039	0	32644	29884	32761	32280	35686	
1040	0	32614	30827	32720	32881	25190	
1041	0	32860	31776	32763	33621	21432	
1042	0	32928	32471	32684	33355	19403	
1043	0	32789	33607	32748	32358	27605	
1044	0	32577	34032	32768	31522	37249	
1045	0	32456	33699	32665	31099	37358	
1046	0	32406	32339	32770	31518	32391	
1047	0	32546	30663	32655	32805	26926	
1048	0	32636	29677	32766	34643	25753	
1049	0	32656	30211	32752	36306	34326	
1050	0	32696	31858	32563	37138	40805	
1051	0	32797	33223	32775	36194	41784	
1052	0	32731	33923	32691	34014	42256	
1053	0	32804	34070	32581	31498	37735	
1054	0	32945	34292	32731	31269	31441	
1055	0	32992	34240	32751	32292	23337	
1056	0	33048	34498	32627	32276	20603	
1057	0	33069	34987	32761	32157	23107	
1058	0	33070	34855	32662	31815	25991	
1059	0	32979	34653	32758	31475	27727	
1060	0	32792	33714	32807	30544	32568	
1061	0	32766	32537	32849	29822	36924	
1062	0	32930	31283	32804	28167	36660	
1063	0	32903	31220	32607	28107	34466	
1064	0	32712	32244	32674	31670	38406	
1065	0	32696	32797	32759	36054	38407	
1066	0	32621	32928	32656	39111	35138	
1067	0	32604	32573	32729	40794	38441	
1068	0	32878	32658	32637	38731	37715	
1069	0	33034	33052	32711	35138	32735	
1070	0	32912	33426	32757	33200	33641	
1071	0	32802	33978	32690	32382	38487	
1072	0	32873	33483	32717	31175	37735	
1073	0	32976	31444	32587	30547	32199	
1074	0	32948	29251	32793	30126	28967	
1075	0	32740	28591	32855	30195	28653	
1076	0	32654	29255	32605	30819	28551	
1077	0	32620	31213	32669	31709	28879	
1078	0	32548	32668	32704	32903	31696	
1079	0	32480	33567	32815	34807	34063	
1080	0	32619	33517	32820	34848	31127	
1081	0	32815	33234	32610	33639	29357	
1082	0	32813	33287	32713	31051	29831	
1083	0	32707	33287	32743	30822	32749	
1084	0	32692	32747	32639	31853	31599	
1085	0	32718	32579	32763	31991	34971	
1086	0	32627	32811	32687	31959	33597	
1087	0	32621	33134	32775	32597	32583	
1088	0	32690	33387	32752	33389	28672	
1089	0	32556	34238	32642	32609	29643	
1090	0	32730	35668	32700	31267	37527	
1091	0	32932	36853	32694	31511	40925	
1092	0	32821	36747	32687	32879	37202	
1093	0	32760	35823	32703	32694	33516	
1094	0	32736	34375	32629	31437	33557	
1095	0	32818	32731	32807	30814	30534	
1096	0	32736	32583	32821	32285	29967	
1097	0	32809	30425	32755	34402	33163	
1098	0	32904	27331	32684	35266	34404	
1099	0	33020	25542	32655	34818	36357	
1100	0	33127	25563	32875	35762	32573	
1101	0	32868	28637	32875	36359	31034	
1102	0	32763	32461	32671	35058	30791	
1103	0	32741	34179	32768	31331	26716	
1104	0	32664	34535	32706	27987	21968	
1105	0	32724	35053	32747	28991	21941	
1106	0	32680	35160	32775	33638	32184	
1107	0	32681	34723	32775	37396	42759	
1108	0	32612	33463	32808	36009	38480	
1109	0	32720	32321	32725	35575	34511	
1110	0	32808	31003	32750	32650	34389	
1111	0	32875	31479	32516	32084	25035	
1112	0	32876	32735	32691	30791	24274	
1113	0	32820	32674	32650	30369	35825	
1114	0	32948	31737	32774	31136	42966	
1115	0	32904	30494	32848	31916	45857	
1116	0	32775	29763	32813	31949	43507	
1117	0	32857	31025	32775	31254	40421	
1118	0	32921	33088	32543	30875	36487	
1119	0	32756	34198	32742	31441	32775	
1120	0	32797	34823	32690	32691	26992	
1121	0	32791	34819	32751	30829	28645	
1122	0	32804	33797	32789	31043	28799	
1123	0	32889	32462	32774	31651	30286	
1124	0	32794	31352	32757	34323	25117	
1125	0	32720	31143	32775	37463	26913	
1126	0	32630	31574	32799	39357	30082	
1127	0	32635	32198	32678	37931	30232	
1128	0	32748	33399	32763	36050	29793	
1129	0	32729	34342	32735	32404	34336	
1130	0	32756	35323	32803	29058	35830	
1131	0	32793	35503	32757	28693	38764	
1132	0	32858	35043	32772	30511	38034	
1133	0	32802	34432	32771	33185	32787	
1134	0	32788	32717	32566	33351	29558	
1135	0	32915	32103	32687	31959	28816	
1136	0	32929	31849	32671	33623	29568	
1137	0	32892	31831	32809	35410	30358	
1138	0	32649	31745	32828	33177	34352	
1139	0	32658	31860	32775	30901	38887	
1140	0	32718	32289	32812	29901	40781	
1141	0	32531	33161	32656	29665	44193	
1142	0	32400	34119	32750	30891	38793	
1143	0	32532	34747	32669	31302	28866	
1144	0	32775	34237	32848	32010	24294	
1145	0	32812	33385	32793	32184	23515	
1146	0	32666	32573	32643	34295	31983	
1147	0	32715	32054	32767	34729	31571	
1148	0	32685	32673	32728	34470	25189	
1149	0	32758	34180	32711	32139	27574	
1150	0	32818	34732	32744	30896	34076	
1151	0	32878	34702	32605	32896	40491	
1152	0	33001	32853	32720	35821	40350	
1153	0	32904	29612	32822	38018	29688	
1154	0	33033	26756	32579	36207	27508	
1155	0	33220	26210	32754	33188	35286	
1156	0	33024	27111	32828	31226	48405	
1157	0	32857	28534	32676	30054	44168	
1158	0	32601	29930	32673	30688	31420	
1159	0	32692	31407	32727	32071	19953	
1160	0	32860	32560	32772	32223	18077	
1161	0	32978	33075	32751	32589	21186	
1162	0	32842	33718	32602	33985	20059	
1163	0	32672	34555	32709	32883	27779	
1164	0	32666	34927	32753	31715	34579	
1165	0	32721	35107	32797	31179	39968	
1166	0	32733	35414	32775	31297	42234	
1167	0	32691	35351	32658	33218	40798	
1168	0	32650	34738	32775	34861	35625	
1169	0	32444	33384	32775	34225	31207	
1170	0	32587	32739	32622	32300	36313	
1171	0	32704	32660	32738	30557	38774	
1172	0	32668	32891	32706	28812	45063	
1173	0	32792	33227	32619	30310	39224	
1174	0	32741	34091	32788	34020	30500	
1175	0	32819	34576	32746	37011	24807	
1176	0	32813	34531	32598	39314	28269	
1177	0	32786	33789	32775	41384	24657	
1178	0	32822	33327	32749	39521	25641	
1179	0	32748	32697	32604	33995	33686	
1180	0	32802	31480	32744	28749	35865	
1181	0	32860	31330	32625	26020	32513	
1182	0	32744	30674	32756	27139	38721	
1183	0	32765	30326	32803	28999	35502	
1184	0	32793	29951	32711	31370	32896	
1185	0	32764	31721	32701	32303	32030	
1186	0	32676	34075	32631	33357	29298	
1187	0	32620	36026	32787	34445	22192	
1188	0	32674	35629	32758	35160	27653	
1189	0	32797	34562	32747	34880	35493	
1190	0	32877	32672	32749	36349	34483	
1191	0	32812	30710	32771	33159	38319	
1192	0	32722	29910	32822	27904	40787	
1193	0	32728	29583	32589	26126	38016	
1194	0	32816	29784	32717	28226	31998	
1195	0	32895	30392	32674	33150	23807	
1196	0	32860	31523	32751	35989	30582	
1197	0	32882	32818	32724	33605	31993	
1198	0	32904	33360	32767	33116	36802	
1199	0	32960	34297	32683	33239	28352	
1200	0	32853	35175	32711	34143	25607	
1201	0	32948	35930	32795	33298	31517	
1202	0	32984	36827	32839	31687	33894	
1203	0	32889	35829	32758	32161	37347	
1204	0	32832	34041	32617	32709	36283	
1205	0	32904	31063	32669	33001	29170	
1206	0	32933	28838	32611	32612	35380	
1207	0	32870	27960	32747	32348	44927	
1208	0	32742	28677	32807	33607	45165	
1209	0	32480	30888	32804	34296	30874	
1210	0	32428	32500	32830	33262	21382	
1211	0	32480	33403	32692	32711	24143	
1212	0	32521	33262	32743	32699	30463	
1213	0	32364	33232	32626	32253	26067	
1214	0	32556	33333	32733	31940	29786	
1215	0	32677	33223	32741	31849	33033	
1216	0	32738	33922	32709	33051	26384	
1217	0	32724	35244	32690	34768	29832	
1218	0	32884	35431	32638	34086	36864	
1219	0	32933	33990	32747	33114	39227	
1220	0	32820	32569	32793	33870	40883	
1221	0	32804	31439	32775	35539	39747	
1222	0	32903	31077	32727	36062	36567	
1223	0	32899	31808	32734	34652	30583	
1224	0	32756	32544	32647	31559	26451	
1225	0	32832	32333	32765	31335	31645	
1226	0	32910	32184	32766	31239	39981	
1227	0	32720	31815	32684	31230	48008	
1228	0	32630	32451	32770	31459	49718	
1229	0	32824	33152	32612	32283	40157	
1230	0	32780	33438	32655	33902	28382	
1231	0	32744	32165	32584	33684	16541	
1232	0	32813	31215	32719	33397	13363	
1233	0	33002	30742	32722	31205	20817	
1234	0	33014	30724	32589	29386	23732	
1235	0	32825	30851	32775	29895	29586	
1236	0	32805	31679	32775	31457	32419	
1237	0	32818	32188	32737	34917	31439	
1238	0	32730	32891	32729	36188	27646	
1239	0	32658	33813	32722	34178	35773	
1240	0	32659	33964	32740	33286	48600	
1241	0	32680	34212	32815	32421	52715	
1242	0	32809	34280	32803	32457	44926	
1243	0	32692	34573	32822	33174	36199	
1244	0	32634	35378	32839	31570	20552	
1245	0	32638	36016	32819	29489	14092	
1246	0	32540	35847	32815	30151	18033	
1247	0	32576	35330	32839	28859	27435	
1248	0	32816	33769	32801	31406	31099	
1249	0	32967	31512	32848	32805	33752	
1250	0	32912	29389	32741	35606	33536	
1251	0	32804	28346	32650	37836	35488	
1252	0	32860	29110	32799	38517	42294	
1253	0	32920	30267	32775	38029	44950	
1254	0	32826	31823	32716	33988	45274	
1255	0	32797	32364	32772	30253	34064	
1256	0	33006	32360	32729	29306	30084	
1257	0	33240	31862	32565	29127	33991	
1258	0	33262	31468	32717	31201	35811	
1259	0	33128	31907	32686	32662	34098	
1260	0	33065	34179	32613	32896	30942	
1261	0	32967	35880	32628	32464	23766	
1262	0	32890	36378	32634	32635	27475	
1263	0	32872	34990	32711	32621	33033	
1264	0	32907	33407	32699	31472	35613	
1265	0	32950	31973	32512	31659	30851	
1266	0	32967	31084	32750	32813	32471	
1267	0	32866	30827	32838	33851	33107	
1268	0	32902	30809	32534	35228	27232	
1269	0	32848	31589	32738	35527	31017	
1270	0	32792	33053	32747	35891	39476	
1271	0	32833	34594	32605	34429	37059	
1272	0	32872	34414	32694	32251	34929	
1273	0	32793	33650	32642	29436	30599	
1274	0	32850	32535	32709	27683	25929	
1275	0	32704	31258	32720	28624	35283	
1276	0	32414	30846	32754	30107	35259	
1277	0	32421	32132	32806	32775	32571	
1278	0	32364	33247	32757	37014	33458	
1279	0	32400	34680	32704	40050	30849	
1280	0	32479	34554	32850	42559	26051	
1281	0	32508	32886	32880	36542	28915	
1282	0	32608	31047	32795	32281	35304	
1283	0	32512	29325	32795	29742	34594	
1284	0	32560	29869	32831	29042	37277	
1285	0	32711	31081	32711	30035	33256	
1286	0	32542	32134	32825	29509	34592	
1287	0	32319	32887	32811	29579	34562	
1288	0	32368	33287	32791	31338	34165	
1289	0	32408	33238	32928	31843	41192	
1290	0	32340	33669	32902	32918	35169	
1291	0	32432	33877	32813	34695	27590	
1292	0	32521	33618	32807	34976	27610	
1293	0	32688	33869	32742	32679	27673	
1294	0	32758	33751	32663	32384	28898	
1295	0	32773	33372	32643	34677	29031	
1296	0	32740	33275	32718	34010	34130	
1297	0	32927	32426	32726	32221	39220	
1298	0	32948	31259	32735	31878	36547	
1299	0	33164	31095	32695	30667	37295	
1300	0	33243	32141	32711	28930	35512	
1301	0	33037	33024	32726	28708	28434	
1302	0	32914	33366	32739	28509	28865	
1303	0	33024	33258	32770	31751	43578	
1304	0	32930	32809	32668	33940	36428	
1305	0	32877	33390	32665	35698	18664	
1306	0	32844	33670	32656	37429	28886	
1307	0	32878	32973	32758	36899	40405	
1308	0	33062	31792	32743	35469	34384	
1309	0	32866	31330	32711	32366	22046	
1310	0	32707	31664	32746	30069	20980	
1311	0	32658	32016	32671	29735	31777	
1312	0	32752	31872	32671	30301	33819	
1313	0	32808	32236	32763	32146	30567	
1314	0	32612	32971	32845	35710	31901	
1315	0	32612	33518	32711	38279	34368	
1316	0	32632	34032	32759	37987	33415	
1317	0	32723	35122	32647	36295	36599	
1318	0	32728	35517	32774	31699	37814	
1319	0	32760	34290	32764	26675	40338	
1320	0	32829	32505	32656	25494	33552	
1321	0	32752	30168	32775	28148	25049	
1322	0	32883	28845	32655	31773	23649	
1323	0	33040	29569	32718	33372	33333	
1324	0	32952	31352	32744	33714	41384	
1325	0	32853	33280	32768	36390	44811	
1326	0	32878	35779	32790	36871	39396	
1327	0	32946	37189	32662	35086	39491	
1328	0	32839	37124	32745	34359	29800	
1329	0	32749	35612	32738	34823	25080	
1330	0	32648	33433	32699	35181	24908	
1331	0	32703	30915	32678	35616	31165	
1332	0	32843	28740	32622	34914	37347	
1333	0	32757	27844	32499	35079	39035	
1334	0	32660	27434	32560	33414	31373	
1335	0	32813	27442	32600	30742	28218	
1336	0	32986	28085	32578	29171	25113	
1337	0	33032	29499	32537	29808	27837	
1338	0	32992	31465	32541	32184	40701	
1339	0	32901	33294	32582	31946	52167	
1340	0	32947	34663	32606	31947	54364	
1341	0	32896	34781	32640	30061	43033	
1342	0	32760	35323	32673	29067	34080	
1343	0	32792	35176	32694	28796	16500	
1344	0	32696	35002	32626	29360	5086	
1345	0	32576	34979	32802	31901	11994	
1346	0	32504	35160	32681	34837	31160	
1347	0	32512	33650	32647	36166	35423	
1348	0	32683	31881	32624	34802	42088	
1349	0	32692	32025	32775	34965	36520	
1350	0	32667	32301	32767	35106	34763	
1351	0	32637	32142	32804	32865	39097	
1352	0	32592	32305	32724	30345	33448	
1353	0	32602	32119	32632	29234	25531	
1354	0	32693	32979	32733	29489	36643	
1355	0	32775	34170	32709	30736	28982	
1356	0	33019	35236	32740	31348	11585	
1357	0	32996	35836	32694	32582	20393	
1358	0	32870	35951	32754	33718	23904	
1359	0	32816	36190	32740	36330	26811	
1360	0	32724	35781	32711	38014	34478	
1361	0	32632	34688	32760	38949	41719	
1362	0	32583	33402	32698	36983	42087	
1363	0	32406	31504	32741	32054	48056	
1364	0	32604	29430	32821	29729	49974	
1365	0	32875	27809	32592	30511	46855	
1366	0	32900	27336	32788	32044	32116	
1367	0	33138	28294	32717	32289	18361	
1368	0	33093	30083	32789	32846	25110	
1369	0	32996	32360	32742	32704	34365	
1370	0	33019	34247	32666	32233	36843	
1371	0	32800	34466	32775	31427	35987	
1372	0	32784	33463	32545	31667	35357	
1373	0	32827	32557	32760	32632	31009	
1374	0	32933	31695	32761	32396	23029	
1375	0	32824	31433	32733	33125	31909	
1376	0	32898	31926	32713	34935	38689	
1377	0	32760	33398	32631	34466	38354	
1378	0	32592	35378	32718	32229	35009	
1379	0	32536	37024	32812	31399	32231	
1380	0	32666	36178	32669	31837	28348	
1381	0	32824	33959	32724	32516	32095	
1382	0	32884	31751	32760	33077	36575	
1383	0	32762	30738	32631	35636	33368	
1384	0	32560	30846	32762	36173	29239	
1385	0	32584	29922	32785	34665	34529	
1386	0	32542	28787	32578	31300	33938	
1387	0	32728	27960	32801	29766	30822	
1388	0	32796	27753	32807	31779	31725	
1389	0	32867	28856	32632	33549	33603	
1390	0	33021	31161	32682	33222	39816	
1391	0	32952	33910	32669	31777	34209	
1392	0	32805	35277	32723	31486	29987	
1393	0	32829	35728	32743	30769	29874	
1394	0	33048	34960	32696	30808	31120	
1395	0	32872	33960	32745	29989	41283	
1396	0	32952	33831	32615	29727	41037	
1397	0	32763	34289	32825	31605	38835	
1398	0	32509	34848	32775	34699	35317	
1399	0	32343	35075	32674	36577	27291	
1400	0	32480	34895	32724	37099	26141	
1401	0	32908	32813	32695	37039	31457	
1402	0	32988	30459	32753	37615	34141	
1403	0	33041	29702	32863	34953	29029	
1404	0	32828	30392	32660	32288	30191	
1405	0	32816	31480	32701	28745	34494	
1406	0	32818	33254	32569	27679	27640	
1407	0	32852	35066	32739	29696	24120	
1408	0	32738	35806	32711	32507	22343	
1409	0	32741	34695	32743	32537	29701	
1410	0	32648	32760	32795	32940	24938	
1411	0	32713	31065	32605	32139	30209	
1412	0	32732	30694	32741	32189	38906	
1413	0	32720	31300	32587	31984	34775	
1414	0	32855	32608	32731	32083	33743	
1415	0	32800	33577	32662	31502	30594	
1416	0	32691	34165	32755	32045	26701	
1417	0	32626	34646	32790	33405	38276	
1418	0	32746	34882	32690	34542	44088	
1419	0	32713	34630	32677	36202	42881	
1420	0	32605	33365	32687	35013	41863	
1421	0	32533	32309	32612	32666	33014	
1422	0	32760	31699	32705	31729	30255	
1423	0	32987	31290	32662	32143	32438	
1424	0	33060	31173	32762	32587	33447	
1425	0	32902	31045	32736	33151	41204	
1426	0	32863	31034	32626	33792	38585	
1427	0	32850	31520	32807	32091	34972	
1428	0	32786	32327	32769	30996	26980	
1429	0	32816	32847	32699	31061	23453	
1430	0	32669	32873	32681	33110	34086	
1431	0	32736	32805	32752	35652	28455	
1432	0	32691	32515	32633	36763	27191	
1433	0	32882	32749	32751	35256	23570	
1434	0	32880	33600	32689	31662	25308	
1435	0	32787	34318	32804	29567	38309	
1436	0	32617	34916	32775	30498	38758	
1437	0	32530	35329	32647	31709	36236	
1438	0	32504	35182	32749	31120	41431	
1439	0	32589	35018	32796	33875	40085	
1440	0	32733	34045	32590	35832	39508	
1441	0	32608	32216	32767	37588	37478	
1442	0	32729	30817	32839	37378	27235	
1443	0	32882	29719	32606	35436	20788	
1444	0	33001	30048	32669	34370	19271	
1445	0	33071	31111	32549	31947	19570	
1446	0	32978	32147	32749	31079	21423	
1447	0	32931	32068	32715	29735	23951	
1448	0	32936	31281	32774	28210	30727	
1449	0	32850	30382	32796	28790	39845	
1450	0	32824	30049	32690	31407	44846	
1451	0	32861	29915	32767	33525	43854	
1452	0	32955	29819	32563	32327	41315	
1453	0	33061	31888	32712	29572	37035	
1454	0	32989	34409	32680	30387	25364	
1455	0	32768	35841	32775	30511	25313	
1456	0	32624	36418	32765	32025	35821	
1457	0	32587	35454	32601	34328	39270	
1458	0	32632	34008	32683	34401	44930	
1459	0	32562	32798	32600	34123	51852	
1460	0	32604	31881	32691	33866	48105	
1461	0	32617	31203	32728	35501	34823	
1462	0	32792	31060	32818	32863	23199	
1463	0	32904	31388	32839	29989	14761	
1464	0	32900	31743	32627	31671	15176	
1465	0	32792	31896	32775	33061	27531	
1466	0	32798	32327	32629	34039	33698	
1467	0	32667	32855	32775	34507	34789	
1468	0	32474	34166	32792	35568	24605	
1469	0	32569	35431	32732	36359	12987	
1470	0	32749	36260	32711	36487	29413	
1471	0	32804	35980	32688	34245	40953	
1472	0	32696	33944	32785	28526	47525	
1473	0	32609	31855	32746	28301	49197	
1474	0	32642	31134	32675	30861	47272	
1475	0	32931	31952	32732	33870	47497	
1476	0	33100	31964	32527	35662	43177	
1477	0	33051	30282	32730	34086	32711	
1478	0	33168	27962	32711	31100	29673	
1479	0	33060	26924	32844	30436	27474	
1480	0	32930	28190	32820	30558	19403	
1481	0	32912	29878	32711	30436	15884	
1482	0	32947	30757	32785	30374	8532	
1483	0	32760	32176	32802	30824	21501	
1484	0	32522	34375	32858	30421	34706	
1485	0	32400	35744	32663	30685	36546	
1486	0	32372	36129	32736	31657	35696	
1487	0	32446	36401	32672	31974	35200	
1488	0	32578	36201	32702	35022	35808	
1489	0	32652	36199	32764	37002	41225	
1490	0	32649	36023	32645	37479	44067	
1491	0	32608	35083	32713	35904	47310	
1492	0	32839	34013	32747	35143	49741	
1493	0	32828	32211	32733	34955	34648	
1494	0	32775	30984	32898	34667	27980	
1495	0	32866	30919	33005	34107	27177	
1496	0	32866	31064	32929	31709	16412	
1497	0	32844	30651	32883	31173	11463	
1498	0	32656	31189	32592	30790	26996	
1499	0	32595	32187	32660	30917	32474	
1500	0	32613	33075	32768	33539	30713	
1501	0	32556	33607	32717	34554	36371	
1502	0	32797	33693	32823	34835	34759	
1503	0	33025	33607	32693	33413	32301	
1504	0	33030	33619	32760	33438	33580	
1505	0	32878	32824	32759	31800	39904	
1506	0	32898	33047	32684	31485	39001	
1507	0	32866	32932	32717	31309	35806	
1508	0	32635	32615	32757	31577	37611	
1509	0	32522	33364	32763	31751	36711	
1510	0	32579	34069	32699	31863	38352	
1511	0	32676	33957	32693	30458	36673	
1512	0	32720	33843	32757	29047	34834	
1513	0	32709	33061	32730	30318	26670	
1514	0	32886	31812	32758	34564	22149	
1515	0	33060	29134	32633	34818	23619	
1516	0	33109	26866	32583	35069	23322	
1517	0	32985	26552	32716	35147	41330	
1518	0	32938	28986	32575	34168	38708	
1519	0	32800	31958	32706	33680	40489	
1520	0	32728	33315	32628	32476	45758	
1521	0	32852	33351	32659	30876	43420	
1522	0	32841	32899	32549	29522	33176	
1523	0	32709	33820	32671	30347	22505	
1524	0	32696	34400	32711	33415	20192	
1525	0	32713	34144	32596	35269	9587	
1526	0	32676	33848	32814	32987	13104	
1527	0	32680	33922	32826	30800	31582	
1528	0	32741	34111	32711	29063	38039	
1529	0	32784	34992	32760	31650	40440	
1530	0	32730	35782	32758	35354	49640	
1531	0	32612	35734	32673	39111	51608	
1532	0	32658	34726	32666	41105	47391	
1533	0	32755	33351	32742	40408	35950	
1534	0	32793	31903	32828	33004	26069	
1535	0	32908	31065	32812	29348	14165	
1536	0	32940	31215	32833	29075	18612	
1537	0	32704	31661	32819	30256	26834	
1538	0	32549	32320	32749	33772	36183	
1539	0	32536	33395	32729	33404	35395	
1540	0	32737	33658	32638	30677	27740	
1541	0	32940	32969	32670	29511	25963	
1542	0	32994	32931	32647	30006	28421	
1543	0	32925	33701	32602	29703	36014	
1544	0	32861	35371	32656	29506	46049	
1545	0	32728	36378	32751	32400	48263	
1546	0	32639	35415	32773	34490	49703	
1547	0	32884	32342	32824	34504	33053	
1548	0	32960	28528	32857	34171	15488	
1549	0	33184	25344	32804	32169	24132	
1550	0	33154	24000	32806	31257	44637	
1551	0	33147	25293	32813	31781	41095	
1552	0	32942	28713	32775	31330	34975	
1553	0	32829	31812	32712	32518	17656	
1554	0	32576	33884	32701	34096	20281	
1555	0	32482	35373	32775	35078	27500	
1556	0	32377	35570	32795	35718	28110	
1557	0	32391	35347	32786	35615	30111	
1558	0	32472	35039	32768	35618	35415	
1559	0	32520	35319	32719	33764	37290	
1560	0	32536	34544	32801	30517	38355	
1561	0	32704	34065	32775	29496	46367	
1562	0	32844	33415	32685	30151	44614	
1563	0	32988	33442	32624	31579	33104	
1564	0	33049	32924	32620	31546	23594	
1565	0	33044	31653	32696	31379	21337	
1566	0	33043	29890	32829	30407	30930	
1567	0	33082	29202	32827	32967	38624	
1568	0	33007	30001	32774	36530	37239	
1569	0	32908	30493	32739	37201	40046	
1570	0	32832	31174	32650	36648	30888	
1571	0	32709	32499	32720	35883	20848	
1572	0	32754	32999	32715	34966	18870	
1573	0	32700	34274	32653	32541	39810	
1574	0	32784	35326	32720	30745	47675	
1575	0	32815	35069	32743	30247	44794	
1576	0	32608	34578	32766	30354	32976	
1577	0	32549	33881	32753	31314	22265	
1578	0	32560	33430	32709	33132	15483	
1579	0	32680	33913	32606	33900	20888	
1580	0	32576	34311	32589	33250	30091	
1581	0	32480	33915	32693	32948	35120	
1582	0	32616	34037	32804	33010	39526	
1583	0	32837	33850	32831	32577	39623	
1584	0	32972	34285	32809	31911	35168	
1585	0	33008	33954	32798	31661	40598	
1586	0	32912	33283	32709	31746	38062	
1587	0	32604	32429	32694	32461	34087	
1588	0	32566	32727	32712	33249	38578	
1589	0	32544	32300	32754	32364	26078	
1590	0	32705	31016	32718	30525	22723	
1591	0	32882	29891	32743	30429	26923	
1592	0	32941	30152	32723	31097	33983	
1593	0	32772	30838	32678	31526	32345	
1594	0	32481	31085	32630	30889	31095	
1595	0	32362	32028	32641	30745	33885	
1596	0	32577	33719	32656	32506	32889	
1597	0	32804	34514	32773	36408	36858	
1598	0	32812	34152	32797	40754	32337	
1599	0	32853	34009	32787	38672	37123	
1600	0	32866	34226	32771	34917	39669	
1601	0	33045	32995	32725	32377	36905	
1602	0	33101	31079	32669	34079	39227	
1603	0	33162	28706	32772	34201	34755	
1604	0	33118	27990	32837	34451	29689	
1605	0	32985	28781	32825	33623	24166	
1606	0	32853	30272	32824	30460	25846	
1607	0	32664	31725	32790	29562	34640	
1608	0	32740	33219	32669	29954	36423	
1609	0	32857	34767	32773	30079	38990	
1610	0	32869	34991	32868	31496	32256	
1611	0	32812	34699	32744	32944	22346	
1612	0	32731	34666	32711	33757	22717	
1613	0	32824	33867	32694	34209	23898	
1614	0	32827	33235	32666	34183	22674	
1615	0	32646	33946	32563	33171	37995	
1616	0	32490	32768	32579	32835	45239	
1617	0	32568	31047	32533	31877	40101	
1618	0	32748	29648	32590	29703	35415	
1619	0	32595	29703	32709	28757	38671	
1620	0	32696	31570	32807	28975	33849	
1621	0	32889	32989	32765	30547	29733	
1622	0	32993	34714	32743	33551	29048	
1623	0	32803	35371	32685	35094	29063	
1624	0	32824	35170	32768	34437	29047	
1625	0	32728	34495	32743	35163	24426	
1626	0	32660	33400	32688	34242	36155	
1627	0	32762	32759	32690	32322	38195	
1628	0	33056	32559	32719	31576	39339	
1629	0	32908	32621	32787	32242	39543	
1630	0	32775	31688	32775	33900	43448	
1631	0	32775	30853	32823	35639	43463	
1632	0	32800	30811	32740	34048	34105	
1633	0	32952	31155	32800	32413	31851	
1634	0	32713	32101	32732	32039	28185	
1635	0	32568	33143	32809	31742	18531	
1636	0	32541	33496	32750	34152	20640	
1637	0	32620	32967	32731	36097	29102	
1638	0	32730	32683	32630	36750	30147	
1639	0	32992	32863	32603	35172	29582	
1640	0	32965	33336	32565	31902	31848	
1641	0	32808	35555	32557	29686	34434	
1642	0	32512	37726	32704	28915	41779	
1643	0	32424	37378	32679	27822	47872	
1644	0	32506	35679	32603	28779	42392	
1645	0	32672	32769	32684	33540	41311	
1646	0	32816	29370	32722	35122	31736	
1647	0	33056	28485	32860	35835	7001	
1648	0	33160	29473	32805	33747	17076	
1649	0	33165	29598	32818	30381	24325	
1650	0	33158	28838	32676	31433	31696	
1651	0	33161	28486	32693	32671	38364	
1652	0	33062	28846	32773	33735	43266	
1653	0	32883	29963	32767	33766	43015	
1654	0	32836	31331	32702	32246	37091	
1655	0	32716	32638	32758	31552	45100	
1656	0	32710	33614	32729	33103	42231	
1657	0	32673	34330	32672	36512	29699	
1658	0	32560	34969	32773	37882	19951	
1659	0	32580	34839	32685	35602	17590	
1660	0	32594	34639	32604	31936	15537	
1661	0	32612	34555	32707	29894	20448	
1662	0	32630	34386	32709	29335	34822	
1663	0	32678	34280	32741	29598	40165	
1664	0	32772	34783	32741	30571	43575	
1665	0	32800	35013	32775	30781	45343	
1666	0	32640	34543	32721	31158	42931	
1667	0	32632	34338	32775	32325	32172	
1668	0	32662	33155	32834	33644	35682	
1669	0	32767	31576	32745	35919	48084	
1670	0	32820	30384	32736	35696	37184	
1671	0	32797	30206	32760	33580	23343	
1672	0	32873	30757	32745	32869	31900	
1673	0	32788	32009	32736	32873	21876	
1674	0	32813	32644	32637	33083	12963	
1675	0	32698	32566	32683	32797	19827	
1676	0	32617	32962	32731	32522	27804	
1677	0	32718	32937	32795	32950	32429	
1678	0	32736	33605	32803	32868	38511	
1679	0	32640	34652	32789	31858	41660	
1680	0	32604	35282	32795	30571	39859	
1681	0	32592	36864	32787	30544	29603	
1682	0	32609	38316	32743	30802	34311	
1683	0	32754	37296	32759	31921	39939	
1684	0	32738	34215	32676	35286	37356	
1685	0	32896	29496	32525	39536	37489	
1686	0	32952	27127	32562	39696	34176	
1687	0	32902	27567	32766	35481	29642	
1688	0	32746	30352	32832	31613	27460	
1689	0	32587	32621	32795	31314	36208	
1690	0	32768	33668	32707	31353	34702	
1691	0	32829	32556	32775	29822	39900	
1692	0	33022	30121	32708	28210	37072	
1693	0	32906	27500	32688	30540	25475	
1694	0	32893	27611	32717	33734	19123	
1695	0	32904	29310	32639	35237	24420	
1696	0	32968	31532	32711	34553	33422	
1697	0	32876	32659	32704	34363	34237	
1698	0	32813	32865	32720	33846	30654	
1699	0	32980	32358	32720	34842	41212	
1700	0	32960	32430	32764	33010	52045	
1701	0	32929	33005	32775	29460	50935	
1702	0	32812	32870	32840	28845	34557	
1703	0	32736	33141	32669	32028	11952	
1704	0	32821	33636	32599	34288	17360	
1705	0	32774	34251	32590	34994	20442	
1706	0	32643	35344	32672	33358	31152	
1707	0	32613	35384	32657	29696	50761	
1708	0	32618	35368	32691	31809	49000	
1709	0	32853	34568	32640	31114	26266	
1710	0	32928	33546	32582	31425	11291	
1711	0	32750	33496	32587	31152	19130	
1712	0	32621	33383	32571	32306	27774	
1713	0	32701	33112	32641	35498	33131	
1714	0	32788	34490	32689	35527	40677	
1715	0	32768	35544	32700	32774	33053	
1716	0	32612	34586	32775	31760	32003	
1717	0	32732	32491	32788	31063	37711	
1718	0	32836	30861	32820	30057	35248	
1719	0	32846	29303	32736	28737	29827	
1720	0	32790	27323	32736	30858	35744	
1721	0	32778	27142	32774	35619	41282	
1722	0	32861	29063	32834	39378	50608	
1723	0	32688	31619	32753	38363	48127	
1724	0	32527	33390	32715	36039	42144	
1725	0	32577	33700	32607	32747	36333	
1726	0	32632	33192	32640	30672	20487	
1727	0	32701	33729	32795	29151	14487	
1728	0	32760	34299	32820	30629	21498	
1729	0	32918	34726	32837	33264	28632	
1730	0	32900	36047	32774	35600	29782	
1731	0	32812	35908	32772	35709	27006	
1732	0	32813	33779	32753	35283	24559	
1733	0	32774	31957	32744	32988	30880	
1734	0	32732	30741	32612	29278	44052	
1735	0	32848	31249	32568	27397	48033	
1736	0	32912	32383	32605	28176	47616	
1737	0	32784	33132	32731	30310	43236	
1738	0	32704	34288	32806	35106	29243	
1739	0	32692	33932	32820	37618	18767	
1740	0	32557	32246	32743	36807	18747	
1741	0	32510	29611	32643	34948	21405	
1742	0	32648	28195	32644	31267	34982	
1743	0	33100	29826	32656	30645	45601	
1744	0	33268	31584	32717	32824	35284	
1745	0	33102	32690	32653	32300	29604	
1746	0	33027	32743	32654	31749	31751	
1747	0	32858	33148	32557	31616	36736	
1748	0	32672	33601	32591	32301	35805	
1749	0	32583	33623	32787	31767	34887	
1750	0	32617	34031	32882	33967	34655	
1751	0	32973	34548	32816	35363	29012	
1752	0	33146	34798	32740	33260	18720	
1753	0	33142	35005	32710	31184	22134	
1754	0	32716	35024	32736	30958	36256	
1755	0	32416	34134	32699	30678	39815	
1756	0	32557	32382	32677	31110	34739	
1757	0	32916	31257	32692	34472	39268	
1758	0	32900	30874	32732	35422	42149	
1759	0	32592	30991	32643	35494	39623	
1760	0	32504	31576	32664	33953	32751	
1761	0	32718	31321	32600	32514	22016	
1762	0	32817	31245	32737	34595	10871	
1763	0	32677	32164	32789	34879	22138	
1764	0	32711	32932	32848	32595	38213	
1765	0	32668	33751	32820	32351	38727	
1766	0	32775	34832	32835	29408	42809	
1767	0	32713	36767	32755	28150	41029	
1768	0	32612	37050	32739	31300	39099	
1769	0	32624	35425	32705	33088	34371	
1770	0	32662	32184	32647	33270	36523	
1771	0	32592	29784	32748	34092	29357	
1772	0	32954	28642	32711	36237	34004	
1773	0	32993	29241	32689	36551	29639	
1774	0	32964	31552	32717	34012	37452	
1775	0	33010	32573	32685	30954	36982	
1776	0	32812	33036	32766	28927	29614	
1777	0	32912	31774	32632	29321	24766	
1778	0	32937	30089	32759	30857	24151	
1779	0	32877	29053	32857	30185	23127	
1780	0	32955	29406	32611	31236	28759	
1781	0	32870	30859	32775	34225	36062	
1782	0	32740	32301	32602	37943	33666	
1783	0	32644	33565	32632	37843	28270	
1784	0	32704	35456	32663	37444	28167	
1785	0	32597	36999	32766	34388	37492	
1786	0	32610	37159	32703	34576	39087	
1787	0	32634	36676	32710	32933	40519	
1788	0	32839	34778	32731	32157	45191	
1789	0	32909	33773	32697	31362	34259	
1790	0	32839	32963	32592	31600	25561	
1791	0	32822	32327	32590	30533	32760	
1792	0	32773	32161	32680	30151	40345	
1793	0	32717	31713	32704	29411	38299	
1794	0	32775	30822	32737	28339	34149	
1795	0	32724	29924	32800	26544	24112	
1796	0	32753	30124	32832	27973	24507	
1797	0	32738	30741	32741	31453	38244	
1798	0	32576	31837	32816	33611	34752	
1799	0	32442	32244	32712	35594	29045	
1800	0	32428	31789	32679	38305	24960	
1801	0	32792	31843	32599	37196	33600	
1802	0	32788	33555	32604	35915	40276	
1803	0	32775	34208	32691	34424	35602	
1804	0	32810	34439	32723	31802	32223	
1805	0	32944	34109	32753	31553	25060	
1806	0	33040	34823	32752	30253	15905	
1807	0	32972	35136	32762	30921	26856	
1808	0	32936	35143	32720	31923	35251	
1809	0	32914	34626	32775	31960	37755	
1810	0	32838	32864	32676	33280	44586	
1811	0	32752	31089	32607	34518	47716	
1812	0	32637	29972	32670	35693	36184	
1813	0	32646	30067	32818	36674	32529	
1814	0	32788	30054	32733	35917	36265	
1815	0	32846	30064	32584	36557	34792	
1816	0	32728	30928	32580	36701	16068	
1817	0	32664	32450	32551	34821	19812	
1818	0	32686	33530	32597	32434	28984	
1819	0	32668	34271	32627	29245	37368	
1820	0	32770	33694	32746	28198	42464	
1821	0	32982	32263	32825	28439	48002	
1822	0	32948	32255	32843	30888	40252	
1823	0	32712	32352	32740	32532	15986	
1824	0	32732	32758	32774	32263	14439	
1825	0	32764	33648	32724	31828	34528	
1826	0	32687	33499	32676	33351	31965	
1827	0	32826	33624	32739	33493	34065	
1828	0	32864	33385	32775	31903	28016	
1829	0	32768	33077	32728	29581	36376	
1830	0	32752	33122	32595	29102	46871	
1831	0	32928	33612	32613	31351	40775	
1832	0	32806	33591	32543	32527	33077	
1833	0	32839	32554	32685	33824	27927	
1834	0	32772	30498	32853	35847	22433	
1835	0	32834	29634	32775	36159	29231	
1836	0	32772	30153	32692	35485	32594	
1837	0	32853	31527	32708	32112	29359	
1838	0	32812	33464	32808	28964	33091	
1839	0	32685	34567	32816	28472	39891	
1840	0	32795	34624	32724	31192	45227	
1841	0	32803	33632	32723	34578	39610	
1842	0	32718	32978	32703	36752	34413	
1843	0	32740	33757	32828	38155	29702	
1844	0	32613	34592	32839	36850	28733	
1845	0	32593	34984	32758	30979	25722	
1846	0	32840	34734	32717	26397	28456	
1847	0	32936	33467	32706	27750	35647	
1848	0	32670	30787	32699	31120	30473	
1849	0	32669	30569	32600	36678	27044	
1850	0	32649	31762	32560	39620	32973	
1851	0	32682	31677	32634	40289	43776	
1852	0	32732	31627	32727	38512	37006	
1853	0	32734	32693	32825	38350	30699	
1854	0	32957	33481	32707	33112	26441	
1855	0	33292	33064	32741	26262	22855	
1856	0	33164	31526	32721	25881	21542	
1857	0	32944	30235	32720	30383	26089	
1858	0	32864	29703	32805	34078	31716	
1859	0	32626	30277	32775	33702	44482	
1860	0	32808	29179	32556	28153	42674	
1861	0	32736	28335	32775	27329	42429	
1862	0	32662	29258	32737	28027	36587	
1863	0	32538	31046	32656	30023	37371	
1864	0	32617	33472	32692	31380	33867	
1865	0	32559	35207	32761	31455	31798	
1866	0	32488	36062	32799	32572	37859	
1867	0	32462	38302	32820	35177	40455	
1868	0	32775	39431	32852	36306	29762	
1869	0	32806	39314	32743	36267	23252	
1870	0	32812	39047	32719	34957	29335	
1871	0	32843	36807	32643	34235	30747	
1872	0	32891	32729	32633	33368	29531	
1873	0	32858	27652	32635	31745	29497	
1874	0	32878	23859	32714	33848	31128	
1875	0	33106	24648	32847	33482	21091	
1876	0	33061	26916	32740	32830	28825	
1877	0	32902	29578	32724	34188	28803	
1878	0	32720	33176	32785	34576	33296	
1879	0	32801	36440	32825	32495	40160	
1880	0	32685	37911	32812	32681	35335	
1881	0	32560	38496	32877	34191	28674	
1882	0	32761	37761	32858	36614	30570	
1883	0	32802	35861	32685	35819	31290	
1884	0	32596	33780	32660	32031	38653	
1885	0	32573	31538	32676	27436	43679	
1886	0	32634	27559	32809	25844	39896	
1887	0	32659	24510	32812	26706	36800	
1888	0	32922	25776	32681	30012	43591	
1889	0	33016	28895	32767	33563	40295	
1890	0	32976	32044	32716	36883	36093	
1891	0	32765	34221	32747	38289	35431	
1892	0	32768	35000	32768	33755	35320	
1893	0	32632	35325	32637	30245	27664	
1894	0	32634	35887	32723	29885	25573	
1895	0	32720	35635	32702	32746	26631	
1896	0	32626	33809	32757	33038	20432	
1897	0	32705	31406	32626	33221	19216	
1898	0	32839	30723	32562	33557	23699	
1899	0	32848	30871	32760	34467	22291	
1900	0	32728	32103	32775	34646	20594	
1901	0	32754	33940	32553	31664	41472	
1902	0	32732	35324	32750	28896	57389	
1903	0	32724	35909	32817	28860	52557	
1904	0	32709	36127	32736	29527	43750	
1905	0	32717	36289	32775	32218	31467	
1906	0	32738	35824	32768	36330	24827	
1907	0	32681	34277	32715	39413	23016	
1908	0	32775	32692	32733	41779	29506	
1909	0	33010	31595	32770	38696	32800	
1910	0	33074	31286	32711	34177	38299	
1911	0	33082	31216	32566	31550	31687	
1912	0	32961	30986	32718	29356	25241	
1913	0	32809	31199	32759	28467	21785	
1914	0	32876	30738	32742	29407	24169	
1915	0	32818	30408	32672	32326	27685	
1916	0	32892	31412	32643	31984	40553	
1917	0	32706	31963	32737	30968	43665	
1918	0	32738	31801	32733	29895	43362	
1919	0	32804	32313	32794	29686	39207	
1920	0	32664	32860	32804	30778	49923	
1921	0	32462	32409	32706	33773	46546	
1922	0	32564	31644	32676	38030	26286	
1923	0	32594	31547	32637	39620	11466	
1924	0	32596	31799	32662	35651	12597	
1925	0	32676	32757	32707	32829	24553	
1926	0	32676	32379	32843	31504	27754	
1927	0	32807	31908	32762	30605	26381	
1928	0	32898	31970	32663	32169	34843	
1929	0	32861	32434	32715	32627	36222	
1930	0	32960	33379	32767	31840	40834	
1931	0	32881	33551	32747	29954	39077	
1932	0	32841	33863	32761	29071	36291	
1933	0	32923	35361	32693	30343	36535	
1934	0	32758	36032	32653	32356	31239	
1935	0	32493	36792	32614	34200	42170	
1936	0	32481	36539	32641	34420	49246	
1937	0	32695	35778	32611	34335	44033	
1938	0	32741	34445	32671	32642	25243	
1939	0	32835	33155	32789	30361	27285	
1940	0	32913	30215	32853	31504	17930	
1941	0	32804	27781	32729	32820	22572	
1942	0	32967	26891	32809	33584	24071	
1943	0	32824	28624	32831	35719	30578	
1944	0	32735	30829	32623	37081	33975	
1945	0	32755	33424	32629	35072	31010	
1946	0	32517	34887	32705	36536	27074	
1947	0	32504	35034	32766	36941	31751	
1948	0	32692	34808	32854	35306	34424	
1949	0	32826	33866	32762	34137	45325	
1950	0	32759	32639	32696	31611	44754	
1951	0	32936	29844	32658	29874	39837	
1952	0	33248	28327	32691	29083	41680	
1953	0	33160	29180	32668	29247	32488	
1954	0	33012	30328	32511	30073	33259	
1955	0	32957	30677	32530	30068	28560	
1956	0	32946	30440	32664	32200	17499	
1957	0	32930	30299	32609	35651	19653	
1958	0	33063	31330	32586	35099	29046	
1959	0	33308	32112	32676	31308	40221	
1960	0	33268	32870	32748	28211	40775	
1961	0	33034	35202	32681	26905	36652	
1962	0	33060	36772	32637	29064	33113	
1963	0	32914	36884	32640	30883	19255	
1964	0	32914	35451	32596	34261	27891	
1965	0	32984	33788	32744	33961	45682	
1966	0	32878	34003	32750	35061	47558	
1967	0	32757	34984	32691	36294	40141	
1968	0	32756	35091	32733	37198	36000	
1969	0	32775	34528	32677	37137	25283	
1970	0	32732	33572	32690	34400	29984	
1971	0	32918	32957	32739	32064	38854	
1972	0	32775	32326	32730	32036	28304	
1973	0	32488	32192	32621	31387	15695	
1974	0	32377	31400	32662	32440	25556	
1975	0	32572	30282	32676	33586	39708	
1976	0	32676	30791	32747	33368	42359	
1977	0	32319	30995	32936	33105	32912	
1978	0	31873	30746	33055	32077	30009	
1979	0	31954	31450	32938	33573	41906	
1980	0	31952	32101	32944	34248	31932	
1981	0	32080	31687	32940	34249	14916	
1982	0	32528	31236	32995	32748	24852	
1983	0	32397	32208	32992	29282	17757	
1984	0	32485	33691	32843	29040	20805	
1985	0	32431	33657	32786	30973	36271	
1986	0	32500	32898	32713	32263	46470	
1987	0	32720	33757	32711	32684	50898	
1988	0	32930	35344	32762	32231	40018	
1989	0	32888	36259	32775	33415	26722	
1990	0	32902	35777	32807	34506	21577	
1991	0	32940	34978	32804	35016	28579	
1992	0	32762	32630	32741	34012	38240	
1993	0	32790	29431	32677	32056	40292	
1994	0	33005	27527	32656	30395	38833	
1995	0	33122	27758	32544	31604	40591	
1996	0	33074	30648	32597	31519	40941	
1997	0	32930	33126	32647	30843	41666	
1998	0	32918	34521	32692	33927	42442	
1999	0	32874	35415	32734	36062	36482	
2000	0	32671	36067	32647	35591	37014	
2001	0	32694	35830	32647	35077	31000	
2002	0	32592	34235	32572	32000	17800	
2003	0	32794	32521	32613	31966	9822	
2004	0	32920	30795	32612	32613	21127	
2005	0	33048	29304	32653	33554	23978	
2006	0	33202	30114	32820	34842	33067	
2007	0	33088	31651	32800	33987	37063	
2008	0	32969	33716	32739	32231	38499	
2009	0	32847	34984	32791	30263	36035	
2010	0	32528	35798	32805	30161	37369	
2011	0	32477	35885	32834	29843	34807	
2012	0	32868	34460	32733	28934	30200	
2013	0	32736	32898	32629	31565	32348	
2014	0	32572	31995	32690	35514	39016	
2015	0	32638	30407	32735	37271	39871	
2016	0	32820	30203	32820	37259	33481	
2017	0	32740	30248	32805	36542	23488	
2018	0	32928	29729	32809	33575	16912	
2019	0	32932	30304	32791	32374	20279	
2020	0	32820	30269	32771	31397	26808	
2021	0	33003	29742	32820	30740	36435	
2022	0	33097	30258	32812	31896	39592	
2023	0	33022	30464	32753	30579	37383	
2024	0	32784	31128	32687	28634	34975	
2025	0	32762	32833	32729	28546	38151	
2026	0	32787	33709	32768	31686	38787	
2027	0	32794	33185	32705	34720	35155	
2028	0	32818	33336	32735	34867	31027	
2029	0	32840	33818	32690	33287	40660	
2030	0	32919	33783	32761	32247	41328	
2031	0	32765	33799	32695	33095	38367	
2032	0	32775	34981	32771	33566	41607	
2033	0	32708	36346	32692	33129	46050	
2034	0	32516	37003	32752	33928	52125	
2035	0	32500	35968	32730	33428	44046	
2036	0	32729	34462	32630	33263	18756	
2037	0	32921	32440	32596	33732	6969	
2038	0	33036	30616	32642	32897	887	
2039	0	32996	29577	32626	32448	16958	
2040	0	32944	29631	32615	31844	37975	
2041	0	32744	31015	32823	32256	36314	
2042	0	32729	31562	32758	33054	21034	
2043	0	32818	31239	32685	33466	13798	
2044	0	33016	31828	32722	33057	33808	
2045	0	32876	33250	32786	33296	43885	
2046	0	32832	34499	32742	32704	34084	
2047	0	32680	35323	32698	33325	39600	
2048	0	32568	35365	32744	33270	41619	
2049	0	32592	35079	32769	30736	38471	
2050	0	32764	34535	32687	30611	40423	
2051	0	32933	34100	32790	31699	33542	
2052	0	32946	32739	32721	32337	28498	
2053	0	32632	32107	32704	33696	31820	
2054	0	32443	33110	32569	35421	35666	
2055	0	32608	34265	32748	36725	36079	
2056	0	32628	35888	32684	35474	39711	
2057	0	32587	35847	32738	31568	42438	
2058	0	32704	34898	32800	29965	35891	
2059	0	32706	33296	32656	30773	20930	
2060	0	32709	31283	32735	31053	24983	
2061	0	32853	29368	32749	31741	33479	
2062	0	32674	28195	32800	34558	39339	
2063	0	32848	27924	32839	36550	37837	
2064	0	32928	28694	32630	36001	26098	
2065	0	32868	29826	32650	33432	18853	
2066	0	32775	30629	32576	32341	16734	
2067	0	32872	30845	32680	30939	22002	
2068	0	32900	32008	32716	29402	34952	
2069	0	32784	33998	32691	30402	35017	
2070	0	32746	35087	32765	31173	34431	
2071	0	32815	35267	32707	31314	38210	
2072	0	32750	34400	32672	32457	48340	
2073	0	32652	33624	32546	36241	53931	
2074	0	32552	33454	32685	36636	48231	
2075	0	32606	33371	32727	36972	47783	
2076	0	32859	32636	32806	33829	47238	
2077	0	32844	31175	32858	29952	38006	
2078	0	32861	29248	32520	31297	18000	
2079	0	32957	28404	32720	33408	7487	
2080	0	33032	30215	32624	32857	2135	
2081	0	32888	31007	32788	30423	5282	
2082	0	32832	31041	32724	30968	19723	
2083	0	32788	31970	32792	33594	39387	
2084	0	32658	33464	32788	35097	52780	
2085	0	32622	34542	32635	33792	50823	
2086	0	32504	35670	32704	31804	35941	
2087	0	32496	36591	32773	30077	36588	
2088	0	32568	36916	32720	30642	30456	
2089	0	32839	36029	32766	33069	21991	
2090	0	33030	34426	32763	34698	25184	
2091	0	32924	33639	32775	35007	33644	
2092	0	32882	33518	32655	34419	31073	
2093	0	33065	33952	32736	32229	35463	
2094	0	32985	33566	32618	29901	37639	
2095	0	33004	32722	32751	28566	40436	
2096	0	32915	30940	32798	29058	35584	
2097	0	32766	30589	32753	28958	31674	
2098	0	32751	31639	32755	30488	27208	
2099	0	32775	31334	32575	32705	30352	
2100	0	32640	30196	32755	34784	38241	
2101	0	32578	29676	32643	36563	41479	
2102	0	32600	31001	32823	38994	40765	
2103	0	32713	32088	32819	39816	31589	
2104	0	32647	32647	32809	37311	30288	
2105	0	32762	32788	32809	33689	25560	
2106	0	32801	33387	32480	31143	23818	
2107	0	32688	33882	32707	30425	26808	
2108	0	32748	33548	32700	29520	35903	
2109	0	32941	33117	32808	29462	34375	
2110	0	32853	32860	32686	27857	29450	
2111	0	32696	32465	32729	30258	32878	
2112	0	32768	33081	32647	33397	37987	
2113	0	32722	33252	32677	35351	39657	
2114	0	33037	33833	32717	36121	38407	
2115	0	33060	33728	32753	34241	40600	
2116	0	32820	33490	32775	29686	42375	
2117	0	32716	33682	32855	29595	44269	
2118	0	32744	33060	32836	33018	48775	
2119	0	32839	32801	32792	36880	35460	
2120	0	32805	32560	32910	41210	19507	
2121	0	32916	30089	32785	40616	18471	
2122	0	33008	27364	32808	35508	18253	
2123	0	32899	26917	32736	29605	8727	
2124	0	32793	26832	32572	24163	22120	
2125	0	32835	28697	32546	23573	36024	
2126	0	32642	32544	32724	26862	44664	
2127	0	32342	35124	32642	33064	38756	
2128	0	32442	35726	32804	37169	27210	
2129	0	32457	34729	32667	37773	26771	
2130	0	32656	33691	32744	36680	28385	
2131	0	32853	33504	32722	32687	31047	
2132	0	33119	33116	32764	28135	33362	
2133	0	33092	32902	32710	26234	32775	
2134	0	33088	33432	32680	27334	37395	
2135	0	32960	34281	32699	30499	35462	
2136	0	32784	35481	32797	33264	42840	
2137	0	32766	36528	32797	34938	48647	
2138	0	32532	35770	32758	36728	40192	
2139	0	32176	34434	32899	37138	28573	
2140	0	32187	32108	32617	35845	23626	
2141	0	32788	30445	32706	33223	32356	
2142	0	32999	30493	32583	31234	34009	
2143	0	32842	31815	32724	31565	23555	
2144	0	32864	32646	32613	33584	29616	
2145	0	32939	33227	32711	35157	30605	
2146	0	32898	33545	32603	35768	33065	
2147	0	32792	33765	32711	35137	35463	
2148	0	32797	34370	32615	34275	32167	
2149	0	32909	34425	32801	32907	37126	
2150	0	32736	35006	32704	31471	34017	
2151	0	32588	34823	32750	30275	30011	
2152	0	32698	33782	32717	30423	35278	
2153	0	32691	32837	32643	31277	40423	
2154	0	32685	32038	32825	33843	24645	
2155	0	32929	30528	32740	35171	30097	
2156	0	32891	29138	32793	34016	31693	
2157	0	32789	29430	32875	30449	31835	
2158	0	32741	30955	32657	29538	33188	
2159	0	32896	32626	32616	29078	32939	
2160	0	32840	34763	32573	29212	36483	
2161	0	32804	35963	32711	30973	36061	
2162	0	32649	35483	32649	34253	31340	
2163	0	32688	34400	32754	37507	29597	
2164	0	32578	33035	32659	38068	26579	
2165	0	32757	31671	32722	38267	28161	
2166	0	32690	29878	32690	38544	26727	
2167	0	32691	26768	32775	38144	28679	
2168	0	32768	23923	32705	32917	41798	
2169	0	32903	25368	32798	30989	41593	
2170	0	32935	29792	32728	29218	37427	
2171	0	32956	33420	32689	26818	38372	
2172	0	33034	35903	32720	25536	43431	
2173	0	33056	37643	32730	27854	39094	
2174	0	32716	37831	32799	30714	34136	
2175	0	32581	36384	32710	33478	22117	
2176	0	32560	34920	32729	35869	18204	
2177	0	32795	32988	32713	35640	29891	
2178	0	32984	30822	32761	33163	39069	
2179	0	32746	29420	32839	31660	33918	
2180	0	32664	29622	32642	30762	22167	
2181	0	32720	29784	32681	31056	20501	
2182	0	32738	29673	32547	30663	30194	
2183	0	32592	31373	32743	31894	43002	
2184	0	32516	33543	32652	34044	45487	
2185	0	32620	34991	32775	35478	39744	
2186	0	32803	35509	32790	35928	42092	
2187	0	32530	35640	32762	35827	40858	
2188	0	32588	35080	32792	35096	20203	
2189	0	32636	35604	32839	32168	25777	
2190	0	32703	35951	32827	31675	33062	
2191	0	32923	36251	32733	30303	32927	
2192	0	32702	34379	32792	31431	27809	
2193	0	32680	31091	32795	34188	24318	
2194	0	32744	28445	32825	34149	18870	
2195	0	32882	28527	32660	32313	36080	
2196	0	33048	29535	32711	32231	41699	
2197	0	33009	31469	32572	32370	34259	
2198	0	32816	34137	32704	31460	41398	
2199	0	32630	36270	32688	32071	40044	
2200	0	32646	36505	32725	34375	41362	
2201	0	32765	34734	32760	34311	30350	
2202	0	32989	32064	32715	33719	20362	
2203	0	32912	30419	32787	32747	26078	
2204	0	32880	30400	32523	32613	27963	
2205	0	32820	30877	32655	32649	31905	
2206	0	32806	30429	32699	32011	37927	
2207	0	32784	29383	32741	30067	35661	
2208	0	32704	28346	32731	29465	37288	
2209	0	32628	27743	32507	30802	43435	
2210	0	32742	29947	32634	31903	40467	
2211	0	32739	33426	32552	34302	26772	
2212	0	32664	36558	32678	34984	25190	
2213	0	32768	37831	32746	34605	35357	
2214	0	32813	36285	32835	33799	27840	
2215	0	32877	34460	32709	33216	33392	
2216	0	33032	33033	32768	32493	49823	
2217	0	32934	32868	32684	33584	48001	
2218	0	32922	33608	32726	33372	31815	
2219	0	32888	34251	32704	34358	20191	
2220	0	32716	33767	32760	34649	7384	
2221	0	32594	33744	32829	33608	21225	
2222	0	32612	34030	32706	32590	35501	
2223	0	32680	33590	32809	31193	31437	
2224	0	32818	33165	32697	31223	20427	
2225	0	32702	32634	32660	32400	32893	
2226	0	32610	31687	32572	33510	43664	
2227	0	32664	30874	32789	33467	45735	
2228	0	32651	31161	32585	33262	41955	
2229	0	32579	32112	32824	32500	25829	
2230	0	32642	32877	32785	31015	21672	
2231	0	32574	33972	32710	29835	20118	
2232	0	32634	34542	32703	30792	30272	
2233	0	32676	34068	32592	32280	40481	
2234	0	32761	32752	32792	34102	44039	
2235	0	32876	30771	32816	36169	47829	
2236	0	32904	29895	32833	36955	46614	
2237	0	32775	30062	32813	35512	37447	
2238	0	32862	31112	32620	32263	26816	
2239	0	32946	32537	32703	30087	18892	
2240	0	32928	32419	32607	31504	32263	
2241	0	33184	32391	32704	33891	39543	
2242	0	33283	32844	32620	35424	24589	
2243	0	33035	33630	32775	34119	13094	
2244	0	32775	35066	32752	31122	34660	
2245	0	32442	35735	32755	28910	43072	
2246	0	32526	34507	32809	27899	36960	
2247	0	32656	31790	32613	27872	39001	
2248	0	32939	29112	32686	27645	37443	
2249	0	33025	28530	32765	31528	39555	
2250	0	32968	30821	32789	37253	26892	
2251	0	32805	33035	32775	38540	25095	
2252	0	32604	34196	32767	38658	31769	
2253	0	32560	35335	32822	39311	35591	
2254	0	32595	35110	32673	35549	27097	
2255	0	32697	34079	32658	32993	23487	
2256	0	32834	34026	32536	33894	26834	
2257	0	32896	33840	32807	33490	32709	
2258	0	32886	33415	32790	33266	34347	
2259	0	32704	31822	32849	29736	38120	
2260	0	32775	29870	32889	25371	40342	
2261	0	32947	27904	32823	25842	31164	
2262	0	33070	27852	32921	27965	30029	
2263	0	32957	28636	32624	28871	38351	
2264	0	32694	31239	32641	29947	35635	
2265	0	32855	34362	32595	31960	26149	
2266	0	32712	35430	32754	34290	36823	
2267	0	32746	36048	32736	35493	40070	
2268	0	32843	36152	32740	36003	37753	
2269	0	32921	35051	32677	35541	29715	
2270	0	32908	33672	32688	35992	39266	
2271	0	32610	31925	32728	36342	32093	
2272	0	32568	29914	32684	36050	27944	
2273	0	32696	29060	32736	34099	38941	
2274	0	32898	29667	32492	33076	33667	
2275	0	33020	31367	32684	32574	20281	
2276	0	32910	33139	32674	32914	19137	
2277	0	32783	34050	32787	31678	20951	
2278	0	32444	34594	32809	29702	27163	
2279	0	32432	35274	32642	29595	40350	
2280	0	32518	35753	32711	30991	39810	
2281	0	32630	35243	32624	31887	41826	
2282	0	32493	34963	32720	33406	35610	
2283	0	32711	34738	32803	35207	29319	
2284	0	32819	32629	32809	35415	32040	
2285	0	33090	29996	32770	34449	29209	
2286	0	33235	28320	32598	32147	26368	
2287	0	33001	29266	32688	31431	37368	
2288	0	32729	30687	32559	30161	41631	
2289	0	32860	32399	32699	29506	45903	
2290	0	32984	34105	32661	30659	46855	
2291	0	32850	34628	32738	33542	36816	
2292	0	32795	33432	32680	37267	24251	
2293	0	32812	31624	32706	38312	18276	
2294	0	32877	29661	32775	37343	19357	
2295	0	32732	28822	32617	35271	21505	
2296	0	32775	30377	32684	30402	24641	
2297	0	32662	32789	32645	29127	30303	
2298	0	32676	34963	32808	27958	35296	
2299	0	32580	36003	32807	28870	40218	
2300	0	32569	36359	32688	30630	39109	
2301	0	32466	35463	32807	32003	35230	
2302	0	32477	36195	32728	33401	41076	
2303	0	32497	36814	32793	35296	38815	
2304	0	32704	36750	32651	34823	41828	
2305	0	32922	34668	32697	32273	47554	
2306	0	33050	31608	32800	30075	30233	
2307	0	33130	28487	32757	29556	13764	
2308	0	33082	26748	32775	30798	22341	
2309	0	32851	27098	32582	32098	26655	
2310	0	32626	28276	32741	34554	39656	
2311	0	32589	30108	32792	36899	43943	
2312	0	32465	32304	32618	38488	40115	
2313	0	32226	33690	32739	39395	35169	
2314	0	32352	34095	32724	37824	32118	
2315	0	32832	33774	32843	35485	39872	
2316	0	32937	33550	32700	30895	40958	
2317	0	33114	34222	32681	29244	32110	
2318	0	32929	33791	32685	27705	26238	
2319	0	32752	32984	32704	28928	25648	
2320	0	32805	32434	32624	32960	15402	
2321	0	32820	33543	32801	35676	7654	
2322	0	32832	34342	32799	34927	7938	
2323	0	32775	34608	32690	33248	23874	
2324	0	32748	34379	32711	33508	41560	
2325	0	32858	33287	32613	33911	47483	
2326	0	32892	32975	32775	31465	46047	
2327	0	32929	33997	32753	30725	40816	
2328	0	32962	34339	32759	31807	41442	
2329	0	32785	33886	32838	33798	46900	
2330	0	32680	33341	32648	35174	39293	
2331	0	32728	31973	32731	35218	30053	
2332	0	32936	29317	32720	34594	42693	
2333	0	32844	28002	32792	32634	37856	
2334	0	32896	29177	32715	30927	31338	
2335	0	32904	30323	32647	30786	35939	
2336	0	32841	30806	32806	27628	19956	
2337	0	32784	31301	32927	26247	14357	
2338	0	32720	31205	32841	28695	23283	
2339	0	32728	31128	32770	32312	32420	
2340	0	32829	31716	32605	34893	30299	
2341	0	32646	31623	32728	33407	29391	
2342	0	32669	31716	32745	32295	34094	
2343	0	32770	32869	32704	31458	46546	
2344	0	32753	33794	32729	29699	44848	
2345	0	32910	35174	32616	29968	31103	
2346	0	32962	35992	32686	31748	23487	
2347	0	32818	35587	32608	34917	23573	
2348	0	32711	34217	32758	39855	25961	
2349	0	32700	33163	32786	40676	33605	
2350	0	32726	32489	32812	40083	39013	
2351	0	32846	33581	32678	38849	33990	
2352	0	32906	35371	32567	36409	33799	
2353	0	32917	35534	32618	30885	36882	
2354	0	32899	34608	32688	26427	40634	
2355	0	32936	32464	32775	25683	37187	
2356	0	32821	31680	32819	27285	32528	
2357	0	32809	32436	32839	29651	37383	
2358	0	32576	31789	32799	31380	41370	
2359	0	32539	30626	32626	32343	41739	
2360	0	32787	29246	32692	34422	39471	
2361	0	32768	27500	32697	36359	42271	
2362	0	32804	27524	32775	34102	25509	
2363	0	32851	29637	32711	31124	17461	
2364	0	32955	31098	32771	31388	23369	
2365	0	32933	32118	32519	31581	24888	
2366	0	32839	33072	32694	32297	21625	
2367	0	32852	34543	32639	33098	15789	
2368	0	32938	35315	32698	34048	26252	
2369	0	32686	35948	32541	35254	36206	
2370	0	32672	36123	32720	35112	36644	
2371	0	32656	36338	32647	33927	34046	
2372	0	32652	35568	32775	33003	40747	
2373	0	32752	34610	32678	33001	49976	
2374	0	32488	33085	32736	32290	41499	
2375	0	32480	32034	32752	31407	38093	
2376	0	32744	32272	32598	30266	27680	
2377	0	32603	33676	32749	29510	21664	
2378	0	32596	34967	32741	29539	30471	
2379	0	32650	35629	32804	32106	33338	
2380	0	32781	35435	32740	35530	31596	
2381	0	32884	34215	32660	37782	27598	
2382	0	32841	32688	32768	37666	36344	
2383	0	32637	30898	32827	36648	48345	
2384	0	32832	28807	32599	35498	50882	
2385	0	32997	27170	32728	34386	32928	
2386	0	32930	26916	32740	33307	12446	
2387	0	32711	28398	32839	32415	14173	
2388	0	32556	30909	32819	31211	21641	
2389	0	32579	32291	32614	31077	30719	
2390	0	32720	33334	32717	32169	31303	
2391	0	32926	34762	32630	32082	27704	
2392	0	32844	36240	32754	32592	30919	
2393	0	32684	37383	32652	33645	35503	
2394	0	32540	37381	32719	33481	39544	
2395	0	32464	36317	32773	32693	41983	
2396	0	32702	35134	32847	31821	41185	
2397	0	32898	32790	32742	31826	33776	
2398	0	32752	29954	32713	31588	35728	
2399	0	32832	28208	32775	28517	42151	
2400	0	33105	27674	32822	29670	36770	
2401	0	33222	27883	32907	28460	31733	
2402	0	33107	29823	32605	27798	28615	
2403	0	32928	32902	32717	30595	31160	
2404	0	32906	34860	32583	34215	30883	
2405	0	32754	35143	32731	35298	32308	
2406	0	32681	34759	32742	34151	31187	
2407	0	32741	33129	32848	33264	36727	
2408	0	32697	31532	32850	33607	42018	
2409	0	32770	31931	32645	33533	43280	
2410	0	32628	32992	32775	32198	39407	
2411	0	32662	33820	32643	33031	39160	
2412	0	32624	32962	32752	36466	28359	
2413	0	32610	32533	32775	38055	22549	
2414	0	32890	31559	32551	36906	21083	
2415	0	32768	31239	32733	36667	23869	
2416	0	32690	31479	32723	36259	25326	
2417	0	32913	31878	32801	32936	30533	
2418	0	32989	31463	32767	27673	33321	
2419	0	32870	32001	32677	24248	28954	
2420	0	32752	33407	32738	25393	23795	
2421	0	32861	35082	32648	30242	26691	
2422	0	32797	36550	32784	35444	33600	
2423	0	32640	36960	32760	39068	46240	
2424	0	32690	36187	32789	40587	45816	
2425	0	32737	33452	32748	38058	32965	
2426	0	32865	30416	32553	32104	28538	
2427	0	32936	26187	32615	29101	35752	
2428	0	33116	25658	32541	28359	30521	
2429	0	33065	27790	32647	28677	30571	
2430	0	32969	29895	32549	30279	29234	
2431	0	32719	31840	32800	31751	29029	
2432	0	32600	34266	32793	32562	31492	
2433	0	32497	35396	32809	33287	37782	
2434	0	32600	35463	32828	33607	35899	
2435	0	32729	34450	32710	33719	29445	
2436	0	32848	33587	32691	33963	32734	
2437	0	32969	32058	32550	33378	40760	
2438	0	32837	31291	32647	32433	46739	
2439	0	32782	32254	32607	31899	44655	
2440	0	32764	33026	32793	30903	40037	
2441	0	32793	33586	32863	32188	30503	
2442	0	32707	32984	32775	33122	28718	
2443	0	32664	32132	32780	32173	20812	
2444	0	32670	32339	32676	31292	22223	
2445	0	32566	34219	32720	33508	30336	
2446	0	32525	36322	32668	35076	31480	
2447	0	32461	37432	32801	36282	22152	
2448	0	32605	36776	32691	38336	21710	
2449	0	32674	33536	32725	38489	23955	
2450	0	32874	29823	32649	35904	27339	
2451	0	33056	28406	32758	32721	27169	
2452	0	33097	29471	32775	30774	32052	
2453	0	33209	32377	32846	28432	42156	
2454	0	32904	34355	32828	28701	49192	
2455	0	32652	35283	32642	27583	46079	
2456	0	32640	35595	32674	28487	41893	
2457	0	32658	34748	32668	30109	44079	
2458	0	32732	33575	32751	32734	44507	
2459	0	32732	33095	32719	34499	45613	
2460	0	32518	32387	32603	33415	38369	
2461	0	32592	31192	32744	32944	26166	
2462	0	32692	30066	32846	33258	18108	
2463	0	32807	29874	32815	34211	11717	
2464	0	32880	29368	32684	35674	32884	
2465	0	32707	28795	32594	35607	46879	
2466	0	32640	30023	32794	34805	42263	
2467	0	32874	31666	32750	33015	38806	
2468	0	32946	33328	32828	31704	18418	
2469	0	32944	34276	32789	29092	3092	
2470	0	32789	34182	32633	28532	5807	
2471	0	32640	33513	32764	31522	37304	
2472	0	32816	32809	32752	35056	48666	
2473	0	32973	31668	32809	36340	45300	
2474	0	32856	30610	32741	36784	26118	
2475	0	32804	30503	32659	35608	20125	
2476	0	32869	31385	32696	33212	28917	
2477	0	32957	32578	32725	31638	35357	
2478	0	32666	33392	32793	30966	35386	
2479	0	32656	33738	32660	31533	45368	
2480	0	32614	34763	32775	32949	43904	
2481	0	32713	35399	32637	35309	35814	
2482	0	32728	35861	32824	35207	38439	
2483	0	32592	36535	32723	30765	35298	
2484	0	32739	35789	32796	28352	27254	
2485	0	32496	35134	32793	28317	27131	
2486	0	32706	34447	32832	29811	24418	
2487	0	32932	33015	32872	31215	17681	
2488	0	33155	32203	32832	32386	23587	
2489	0	32972	32116	32702	34144	37351	
2490	0	32888	33785	32600	34667	44562	
2491	0	32808	36542	32790	33752	38074	
2492	0	32569	38226	32796	31971	31640	
2493	0	32506	37132	32794	31772	48468	
2494	0	32520	33242	32639	32587	48223	
2495	0	32459	27886	32792	31008	37784	
2496	0	32638	24133	32740	32069	32476	
2497	0	32940	23556	32837	35103	28732	
2498	0	32906	25414	32775	38296	18343	
2499	0	32772	28690	32545	41695	15552	
2500	0	32908	31664	32672	45380	30936	
2501	0	32886	33705	32554	43169	37895	
2502	0	32857	34602	32720	37638	37726	
2503	0	32898	34754	32584	28380	37192	
2504	0	32904	33404	32684	18527	29837	
2505	0	33185	31334	32696	17914	28294	
2506	0	33243	29439	32772	23457	31845	
2507	0	33190	28121	32747	27119	28158	
2508	0	33341	29709	32551	29703	32035	
2509	0	33168	31984	32688	32795	39020	
2510	0	32822	34434	32696	34324	44174	
2511	0	32364	35847	32730	34157	41236	
2512	0	32184	36321	32677	33327	39205	
2513	0	32237	36625	32746	32559	37315	
2514	0	32473	37288	32784	32396	26904	
2515	0	32484	37433	32749	31859	22180	
2516	0	32696	36982	32801	34015	24765	
2517	0	32624	34472	32724	34158	23602	
2518	0	32561	31264	32827	33824	21788	
2519	0	32745	29085	32877	33915	33210	
2520	0	32812	29467	32858	33938	38393	
2521	0	32833	30272	32896	34599	36942	
2522	0	32833	30553	32684	34562	29261	
2523	0	32809	30400	32736	34680	35045	
2524	0	32672	31006	32684	35907	45063	
2525	0	32723	31561	32743	37439	41719	
2526	0	33099	33221	32729	37269	40199	
2527	0	33346	34424	32701	35691	35810	
2528	0	33351	33588	32839	32515	19248	
2529	0	33203	32686	32611	29706	28962	
2530	0	32764	31775	32795	29350	32731	
2531	0	32601	31460	32612	29919	30914	
2532	0	32816	31641	32793	30863	29340	
2533	0	32661	31416	32635	31715	31894	
2534	0	32498	31961	32698	32334	28523	
2535	0	32616	32651	32578	31687	27229	
2536	0	32610	33935	32746	33009	34062	
2537	0	32530	34619	32685	33625	36342	
2538	0	32664	34867	32805	32983	35263	
2539	0	32754	33607	32822	33745	34235	
2540	0	32736	31729	32568	33321	30074	
2541	0	32630	31072	32688	31227	28105	
2542	0	32424	32148	32764	30564	39154	
2543	0	32602	32763	32898	29649	44759	
2544	0	32518	32839	32763	30159	39431	
2545	0	32630	33554	32575	32327	39218	
2546	0	32843	34429	32749	33957	39105	
2547	0	32642	35440	32671	36743	33216	
2548	0	32948	35938	32760	38114	36267	
2549	0	33070	34864	32755	36967	42179	
2550	0	32981	32417	32947	34689	36103	
2551	0	33002	28982	32860	31424	13856	
2552	0	32879	28648	32840	29477	2304	
2553	0	32757	31004	32867	29547	5427	
2554	0	32536	32000	32536	30792	23973	
2555	0	32788	32920	32733	31160	40394	
2556	0	32904	32896	32652	31848	49868	
2557	0	32774	32455	32718	33338	50755	
2558	0	32728	32219	32726	35801	44386	
2559	0	32772	32937	32528	35952	34988	
2560	0	32730	34418	32662	34477	28312	
2561	0	32637	35533	32632	34704	28995	
2562	0	32669	35426	32728	31295	23716	
2563	0	32902	33534	32758	28388	26280	
2564	0	32952	31444	32753	28889	36748	
2565	0	33120	29954	32813	31193	42614	
2566	0	33152	29357	32618	32442	39757	
2567	0	32936	30880	32730	32608	28016	
2568	0	32664	33630	32753	32297	25186	
2569	0	32583	34609	32775	32537	32942	
2570	0	32684	34311	32793	33471	35175	
2571	0	32844	33255	32791	33910	31111	
2572	0	32748	32028	32801	34061	32231	
2573	0	32709	31142	32664	35182	36432	
2574	0	32614	31529	32715	35592	42317	
2575	0	32824	32801	32626	34202	37943	
2576	0	32912	33313	32743	33159	36803	
2577	0	32804	33777	32742	30578	30029	
2578	0	32860	34119	32735	27619	30552	
2579	0	32819	33056	32746	28794	23794	
2580	0	32797	31892	32621	30939	35858	
2581	0	32780	31465	32720	33098	36312	
2582	0	32866	31270	32688	33422	13188	
2583	0	33028	31776	32793	34304	19188	
2584	0	32976	32425	32793	35299	41045	
2585	0	32928	32725	32655	35162	39760	
2586	0	32737	32967	32741	34123	34290	
2587	0	32489	32593	32567	32985	34174	
2588	0	32445	32175	32763	33524	28936	
2589	0	32443	32447	32765	33775	25935	
2590	0	32629	33040	32600	33984	42274	
2591	0	32859	33659	32667	33222	47989	
2592	0	32968	34002	32608	31651	35024	
2593	0	33149	34134	32758	32589	26330	
2594	0	33286	33652	32679	33670	12151	
2595	0	33504	33660	32712	34311	20134	
2596	0	33524	34702	32686	34111	37571	
2597	0	33273	34637	32647	31461	40985	
2598	0	32659	33567	32753	30078	38169	
2599	0	32320	33596	32693	29069	38975	
2600	0	31888	33957	32804	30491	39356	
2601	0	31616	34791	32917	32272	43510	
2602	0	31552	33547	32853	33908	47770	
2603	0	31497	31357	32805	34539	48807	
2604	0	31904	29948	32756	35890	34292	
2605	0	32376	29703	32818	36048	12336	
2606	0	33138	29696	32662	35097	8597	
2607	0	33172	28602	32800	33142	29272	
2608	0	33293	27808	32557	30597	41758	
2609	0	33684	27446	32635	29747	42892	
2610	0	33702	29620	32427	30487	34962	
2611	0	33590	32915	32518	31912	27252	
2612	0	33588	35820	32598	33483	15296	
2613	0	33339	37100	32750	32504	20332	
2614	0	33189	36800	32602	32928	33720	
2615	0	33005	35612	32658	33488	46697	
2616	0	32940	33203	32596	34869	49586	
2617	0	32839	30868	32759	36082	43394	
2618	0	32692	28165	32726	33964	28789	
2619	0	32586	26916	32614	31465	28722	
2620	0	32736	28869	32660	31132	30590	
2621	0	32859	31698	32560	29109	18237	
2622	0	33083	34506	32728	28476	28101	
2623	0	33184	36988	32743	29691	27804	
2624	0	32928	38407	32730	32458	17966	
2625	0	32707	37940	32713	34869	26503	
2626	0	32555	36640	32708	35257	30116	
2627	0	32590	35614	32824	35393	34915	
2628	0	32517	34037	32583	33855	35808	
2629	0	32280	31915	32739	32787	38337	
2630	0	32093	30551	32805	31825	38104	
2631	0	32126	28757	32931	31140	36378	
2632	0	32118	28198	32986	31345	34881	
2633	0	32192	28774	32813	30042	36244	
2634	0	32356	30149	32855	28763	44032	
2635	0	32531	32551	32774	31606	42872	
2636	0	32500	33582	32933	36295	42603	
2637	0	32386	33283	32790	39386	35220	
2638	0	32608	33056	32864	39299	17312	
2639	0	32667	33064	32938	37164	32628	
2640	0	32460	32616	32884	33037	42677	
2641	0	32434	33203	32931	31396	42778	
2642	0	32584	33870	32784	28646	27992	
2643	0	32724	34067	32819	27122	18619	
2644	0	32963	33570	32827	30446	16901	
2645	0	33206	32830	32647	35807	23423	
2646	0	33168	32089	32545	36290	33799	
2647	0	33004	30823	32657	33369	37434	
2648	0	33210	30534	32506	32067	41006	
2649	0	33088	31649	32599	31910	41885	
2650	0	33123	30939	32472	32809	33767	
2651	0	33012	29572	32699	32877	40864	
2652	0	32962	29378	32734	32098	38889	
2653	0	32979	30839	32489	29337	41062	
2654	0	32806	33122	32683	28861	30151	
2655	0	32928	35358	32683	29618	23606	
2656	0	33089	36764	32617	30923	21959	
2657	0	32864	36743	32675	32721	23071	
2658	0	32625	36132	32669	35547	34336	
2659	0	32640	35214	32711	37406	32888	
2660	0	32669	35293	32694	36767	29925	
2661	0	32760	35064	32661	34297	28354	
2662	0	32794	35102	32787	32706	37853	
2663	0	32726	34567	32855	32743	38975	
2664	0	32775	32981	32704	32161	41351	
2665	0	32624	30409	32673	31336	37426	
2666	0	32701	28431	32555	30226	37221	
2667	0	32816	28713	32824	31600	22210	
2668	0	32728	30224	32926	32541	12014	
2669	0	32722	32331	32654	34464	25060	
2670	0	32837	33070	32784	35979	35670	
2671	0	32902	32367	32771	36226	38016	
2672	0	33040	31823	32592	34768	42479	
2673	0	33029	31682	32672	33313	40967	
2674	0	33095	31490	32729	31220	28156	
2675	0	32768	31791	32770	30050	21113	
2676	0	32736	32545	32824	30194	24379	
2677	0	32644	33278	32698	31092	35846	
2678	0	32751	34059	32562	32194	46386	
2679	0	32858	35335	32586	33672	41672	
2680	0	32833	36558	32637	36029	36055	
2681	0	32757	36291	32705	36378	34101	
2682	0	32626	35583	32793	35345	36863	
2683	0	32684	34071	32738	33475	34979	
2684	0	32824	32317	32822	30344	36110	
2685	0	32690	31721	32752	29186	26384	
2686	0	32466	31289	32678	29415	23154	
2687	0	32572	30143	32765	30751	26080	
2688	0	32767	28857	32653	32071	33944	
2689	0	32816	27608	32573	34186	32066	
2690	0	32768	28590	32653	33104	40098	
2691	0	32836	30209	32774	33575	44221	
2692	0	32898	31692	32848	33840	22162	
2693	0	32805	34205	32755	34776	15090	
2694	0	32775	35911	32762	34775	29700	
2695	0	32839	36352	32797	33305	41408	
2696	0	32896	35318	32784	31652	34330	
2697	0	32856	33595	32571	31744	26134	
2698	0	32700	31321	32669	30587	36445	
2699	0	32715	29629	32809	30874	39702	
2700	0	32890	28824	32849	32132	33597	
2701	0	32967	29063	32837	33044	24740	
2702	0	33060	30854	32818	33479	25201	
2703	0	32786	33041	32775	33030	27665	
2704	0	32667	34298	32798	33055	30134	
2705	0	32586	34887	32751	32406	35481	
2706	0	32618	34402	32683	32225	43194	
2707	0	32616	34103	32669	32337	41328	
2708	0	32746	33646	32604	32182	47852	
2709	0	32732	34243	32699	32829	48539	
2710	0	32601	34607	32765	33304	46674	
2711	0	32612	34665	32756	33860	39492	
2712	0	32632	34409	32792	32813	23144	
2713	0	32775	34379	32813	32208	13638	
2714	0	32882	34262	32703	33039	19792	
2715	0	33019	33414	32762	33776	38236	
2716	0	32840	32853	32816	35581	42960	
2717	0	32762	32174	32775	38366	33104	
2718	0	32678	31552	32866	39495	29920	
2719	0	32784	31926	32872	37879	15132	
2720	0	32941	32330	32762	31897	8730	
2721	0	32920	33091	32583	26333	11269	
2722	0	32925	32584	32666	24749	26709	
2723	0	32848	32442	32739	26973	38407	
2724	0	32909	31497	32774	29559	40511	
2725	0	32893	30247	32813	31269	37698	
2726	0	32701	30583	32694	32509	35335	
2727	0	32441	30777	32725	32466	40884	
2728	0	32606	31036	32635	33019	44911	
2729	0	32681	31791	32677	33263	41303	
2730	0	32769	33366	32699	32513	41848	
2731	0	32711	34933	32765	32112	40324	
2732	0	32717	36600	32800	33012	31099	
2733	0	32549	36993	32853	34748	34506	
2734	0	32344	36027	32775	35812	42733	
2735	0	32321	32144	32616	36495	37043	
2736	0	32825	27739	32596	33675	27201	
2737	0	33140	25781	32573	30436	24086	
2738	0	33184	27031	32591	30708	18338	
2739	0	33030	29463	32541	31532	19861	
2740	0	32893	32448	32626	33144	35930	
2741	0	32891	35568	32713	35684	47235	
2742	0	32787	36854	32670	35426	45575	
2743	0	32785	37295	32728	32896	39827	
2744	0	32653	35930	32775	30041	28295	
2745	0	32712	34404	32658	30237	6296	
2746	0	32907	31042	32806	33446	5620	
2747	0	32986	27416	32869	37604	30680	
2748	0	32968	24935	32809	36553	44860	
2749	0	32932	25838	32719	34007	47997	
2750	0	32951	28536	32738	32056	47080	
2751	0	32853	32045	32775	32300	47705	
2752	0	32579	35399	32818	33316	40530	
2753	0	32537	37505	32775	32377	29111	
2754	0	32828	37328	32770	32357	21843	
2755	0	32848	35824	32768	31844	12077	
2756	0	32692	34170	32643	30727	7033	
2757	0	32688	33490	32699	31162	29661	
2758	0	32805	33797	32795	31589	36871	
2759	0	32677	33955	32702	32327	36167	
2760	0	32750	35037	32767	32221	37446	
2761	0	32870	35752	32699	31167	39017	
2762	0	32672	34611	32641	30203	40319	
2763	0	32752	32217	32699	30445	38743	
2764	0	32970	30399	32742	31253	38139	
2765	0	33032	29355	32667	31922	40455	
2766	0	33040	30280	32619	32964	42752	
2767	0	32820	32334	32691	35789	55860	
2768	0	32690	34445	32792	36871	55035	
2769	0	32496	35154	32816	36764	43384	
2770	0	32498	34706	32628	35602	17101	
2771	0	32636	33188	32753	31470	2252	
2772	0	32716	31951	32808	29229	8630	
2773	0	32642	31265	32643	29044	4839	
2774	0	32592	31937	32837	28723	25176	
2775	0	32711	32100	32886	32430	25424	
2776	0	32832	32154	32616	38252	19561	
2777	0	32780	32588	32773	41986	31184	
2778	0	32760	32256	32745	39916	43305	
2779	0	32904	32370	32610	32728	52231	
2780	0	32960	32295	32755	28125	54107	
2781	0	32896	32039	32647	28409	49328	
2782	0	32853	32173	32553	31751	46279	
2783	0	32732	32800	32713	33688	27994	
2784	0	32825	33257	32795	32504	23523	
2785	0	33049	32833	32818	31660	38632	
2786	0	32844	33184	32775	31237	45079	
2787	0	32512	33468	32645	30229	32114	
2788	0	32496	34023	32707	30654	14948	
2789	0	32523	33849	32563	31171	26262	
2790	0	33060	33049	32755	32421	22694	
2791	0	33287	31892	32769	35758	13647	
2792	0	33083	30284	32816	34635	23298	
2793	0	32740	30112	32822	32325	34093	
2794	0	32762	31493	32586	30568	38697	
2795	0	32832	33881	32653	28424	41948	
2796	0	32703	35926	32624	30277	41299	
2797	0	32520	36295	32722	32546	38898	
2798	0	32437	35271	32775	33707	37860	
2799	0	32500	34119	32707	34707	33821	
2800	0	32336	32216	32762	37077	44088	
2801	0	32680	29596	32751	39829	43322	
2802	0	32994	26710	32839	39960	25776	
2803	0	33198	25809	32836	36261	18874	
2804	0	33260	26952	32759	32036	18933	
2805	0	33232	29402	32834	28969	18055	
2806	0	33001	32082	32553	27655	22500	
2807	0	32827	33646	32709	28102	38279	
2808	0	32518	34472	32681	29613	39321	
2809	0	32424	35667	32813	33150	40731	
2810	0	32322	36272	32809	34537	43527	
2811	0	32516	36295	32739	33879	41970	
2812	0	32676	35576	32688	31386	38354	
2813	0	32904	34153	32601	30483	35027	
2814	0	32882	32155	32711	31261	32372	
2815	0	32839	31167	32726	30843	27924	
2816	0	32882	31049	32750	31337	33671	
2817	0	32728	31914	32770	33939	35031	
2818	0	32728	32611	32720	35127	34418	
2819	0	32797	33504	32627	34978	22204	
2820	0	32724	34062	32632	36098	27417	
2821	0	32546	35323	32739	36057	34781	
2822	0	32499	36515	32711	34863	31275	
2823	0	32541	36310	32722	34102	32940	
2824	0	32760	34050	32746	32178	45689	
2825	0	32912	31237	32608	30339	38963	
2826	0	33037	29455	32757	30784	22554	
2827	0	33036	30201	32680	32518	17222	
2828	0	32899	32041	32747	32659	21895	
2829	0	32850	33008	32770	31604	24313	
2830	0	32744	31733	32756	30773	29650	
2831	0	32964	29043	32707	31747	34235	
2832	0	32952	26945	32861	32567	31367	
2833	0	32839	28191	32836	33127	34678	
2834	0	32824	30082	32682	33984	43762	
2835	0	32905	32476	32788	35320	51245	
2836	0	32860	35256	32682	34822	51655	
2837	0	32660	35730	32760	34050	52155	
2838	0	32573	35102	32664	32905	48108	
2839	0	32582	35155	32789	31678	32818	
2840	0	32648	33657	32704	31943	25943	
2841	0	32664	32120	32698	31457	13868	
2842	0	32748	31874	32548	31230	22226	
2843	0	32700	31786	32608	31559	23687	
2844	0	32860	31733	32621	32065	26168	
2845	0	32824	31899	32799	31579	29531	
2846	0	32636	32696	32812	32571	20536	
2847	0	32498	34486	32640	34299	19744	
2848	0	32498	36298	32746	36255	24317	
2849	0	32413	36809	32775	35517	36121	
2850	0	32530	36646	32872	32677	37767	
2851	0	32638	35491	32825	30509	36471	
2852	0	32955	33670	32656	29203	39770	
2853	0	33120	31079	32772	29299	38212	
2854	0	33072	28624	32748	33187	45698	
2855	0	32804	29159	32844	35257	51399	
2856	0	32698	31414	32793	35158	43399	
2857	0	32809	33178	32592	33458	28187	
2858	0	32960	34302	32655	31584	8172	
2859	0	32824	33936	32728	31576	22056	
2860	0	32684	31777	32741	33188	32478	
2861	0	32648	29476	32638	31629	36721	
2862	0	32664	29530	32672	31431	38680	
2863	0	32585	31608	32605	32833	48645	
2864	0	32632	33555	32744	34951	40684	
2865	0	32682	34336	32759	36310	28900	
2866	0	32849	34167	32603	35991	29421	
2867	0	32850	33784	32684	35504	17182	
2868	0	32829	32741	32753	33922	6983	
2869	0	32996	31968	32775	31029	23018	
2870	0	33017	31644	32701	28592	41456	
2871	0	33037	32034	32654	29116	37532	
2872	0	32893	32967	32720	31336	36089	
2873	0	33080	33987	32775	31506	41950	
2874	0	32981	34093	32812	31713	40519	
2875	0	32739	33146	32828	32136	31785	
2876	0	32538	33042	32598	31239	29135	
2877	0	32492	33444	32649	31683	40073	
2878	0	32458	33575	32556	32386	46254	
2879	0	32297	32932	32719	34424	48185	
2880	0	32536	31448	32704	35476	41991	
2881	0	32889	31124	32803	36768	28322	
2882	0	33000	32310	32824	37305	14777	
2883	0	33003	33735	32659	34771	12361	
2884	0	33060	34113	32694	33287	18826	
2885	0	32976	33608	32717	31607	27097	
2886	0	32886	32093	32622	31521	28915	
2887	0	32906	31081	32693	30655	24144	
2888	0	32966	31101	32635	31950	31634	
2889	0	32868	31431	32793	33589	42152	
2890	0	32696	31316	32851	33283	44301	
2891	0	32392	30785	32583	32805	46552	
2892	0	32497	30843	32743	32967	45666	
2893	0	32609	31963	32688	31812	37827	
2894	0	32664	31842	32820	29352	37563	
2895	0	32902	31531	32839	28108	31274	
2896	0	32966	32416	32628	29883	29506	
2897	0	32835	32735	32696	34043	31988	
2898	0	32932	32786	32744	36160	23517	
2899	0	32904	33023	32673	37015	26816	
2900	0	33022	32416	32711	33969	27107	
2901	0	33032	31791	32583	33011	26683	
2902	0	32948	32800	32775	32371	26323	
2903	0	32748	33363	32856	31853	25601	
2904	0	32666	33235	32640	32230	34823	
2905	0	32681	33253	32787	33320	37154	
2906	0	32809	33159	32685	33907	39072	
2907	0	32824	33575	32804	33525	38435	
2908	0	32664	33094	32683	33575	38995	
2909	0	32688	33287	32799	33647	37046	
2910	0	32538	34589	32805	34062	34889	
2911	0	32688	36494	32827	32872	38240	
2912	0	32803	38206	32837	30722	39849	
2913	0	32767	37314	32659	30379	37867	
2914	0	32757	35198	32697	30404	36159	
2915	0	32636	33991	32551	30628	28141	
2916	0	32584	33727	32644	31002	16654	
2917	0	32640	33013	32719	31346	13565	
2918	0	32696	30736	32665	32512	29609	
2919	0	32652	27865	32702	31787	38462	
2920	0	32763	26977	32581	32656	39154	
2921	0	33298	27563	32808	33746	40108	
2922	0	33543	27871	32852	34535	41922	
2923	0	32932	28983	32755	35026	35283	
2924	0	32654	29306	32754	34656	25793	
2925	0	32566	29496	32643	33576	14201	
2926	0	32368	30490	32717	34218	23419	
2927	0	32500	32804	32772	36096	39024	
2928	0	32619	34703	32833	36009	40568	
2929	0	32555	35740	32747	33430	38840	
2930	0	32514	35247	32573	30502	36934	
2931	0	32705	35158	32629	30001	33259	
2932	0	33069	35285	32706	27930	30939	
2933	0	32985	35503	32660	26208	33152	
2934	0	32951	34578	32669	28587	31998	
2935	0	33053	32755	32480	33799	31517	
2936	0	33008	31367	32744	38035	28905	
2937	0	32896	29626	32711	41961	28355	
2938	0	33029	29319	32739	41415	30727	
2939	0	32921	30008	32818	36250	35006	
2940	0	32945	31648	32600	31274	41552	
2941	0	32674	33328	32736	28956	51829	
2942	0	32520	34322	32679	29983	52189	
2943	0	32480	34318	32790	29874	40422	
2944	0	32642	34235	32839	28606	30894	
2945	0	32780	33913	32616	28664	11600	
2946	0	32531	32659	32762	30413	11866	
2947	0	32473	31382	32785	31471	22252	
2948	0	32573	31696	32762	32471	28767	
2949	0	32686	32574	32758	34437	40272	
2950	0	32720	33470	32664	33658	36823	
2951	0	32608	34399	32741	33129	28313	
2952	0	32931	35714	32729	33683	25842	
2953	0	32882	36999	32578	33486	24967	
2954	0	32762	37679	32602	35601	38514	
2955	0	32853	36291	32723	36866	43556	
2956	0	33164	33629	32813	35833	48120	
2957	0	33085	31305	32722	31698	43623	
2958	0	32903	30074	32790	29786	33074	
2959	0	32856	28480	32618	30259	34426	
2960	0	32918	27492	32796	31170	35106	
2961	0	33065	28538	32824	31668	18624	
2962	0	33035	30820	32809	32496	17486	
2963	0	32902	32815	32848	33953	31812	
2964	0	32642	32971	32813	36095	36359	
2965	0	32537	32936	32765	36971	29731	
2966	0	32548	32973	32809	36829	38436	
2967	0	32606	34203	32720	35156	37598	
2968	0	32624	35308	32677	31499	34763	
2969	0	32701	34775	32760	30027	45851	
2970	0	32810	33526	32722	29240	32538	
2971	0	32984	33080	32736	30574	12853	
2972	0	32786	33998	32757	32390	14246	
2973	0	32594	34514	32762	32327	18439	
2974	0	32701	34008	32820	29816	25245	
2975	0	32797	31861	32888	28654	40176	
2976	0	32883	30595	32548	30135	42083	
2977	0	32800	30727	32614	33595	41577	
2978	0	32886	32711	32563	35115	42456	
2979	0	32775	34288	32707	34258	39927	
2980	0	32912	33488	32708	32338	27473	
2981	0	32821	32120	32753	32618	28064	
2982	0	32861	30001	32847	32863	35933	
2983	0	32869	28582	32594	32923	39800	
2984	0	32804	29284	32658	32362	35697	
2985	0	32676	31336	32628	34290	15332	
2986	0	32596	32732	32690	32853	22088	
2987	0	32691	33415	32728	33039	34468	
2988	0	32772	34246	32775	31675	39126	
2989	0	32609	34995	32789	30272	40629	
2990	0	32544	35760	32718	30746	39779	
2991	0	32653	35074	32753	33471	40785	
2992	0	32613	34111	32674	37486	46690	
2993	0	32748	32506	32583	40368	43293	
2994	0	32908	32197	32641	39465	33987	
2995	0	32908	31361	32630	37862	32853	
2996	0	33037	30249	32839	35200	20808	
2997	0	33120	30498	32807	31874	16841	
2998	0	33165	31297	32725	30356	23032	
2999	0	33165	32652	32760	30624	31047	
3000	0	33053	32619	32696	29957	24172	
3001	0	32729	32253	32583	29205	28558	
3002	0	32650	32339	32656	28089	44176	
3003	0	32724	32764	32594	27753	39431	
3004	0	32504	32880	32713	28838	29205	
3005	0	32294	33408	32644	31047	18845	
3006	0	32376	34663	32774	33234	29108	
3007	0	32244	35992	32793	34690	40388	
3008	0	32236	35875	32775	34978	49051	
3009	0	32429	34763	32816	33813	44771	
3010	0	32520	32946	32817	32101	47679	
3011	0	32637	31899	32768	32119	43398	
3012	0	32976	31440	32656	30881	21500	
3013	0	33144	32215	32652	30695	14050	
3014	0	32909	31076	32536	33390	26100	
3015	0	33019	30741	32649	37282	37484	
3016	0	33160	29538	32654	38749	36235	
3017	0	33222	26770	32807	36749	35822	
3018	0	33332	26341	32775	34726	32694	
3019	0	33170	28176	32668	33689	22816	
3020	0	33021	30242	32762	31815	22727	
3021	0	32654	31769	32634	30261	24697	
3022	0	32528	33067	32749	33112	24703	
3023	0	32632	34244	32657	33211	25653	
3024	0	32739	35037	32841	31207	34242	
3025	0	32656	35774	32738	30895	37802	
3026	0	32697	36130	32837	29296	39761	
3027	0	32700	35859	32711	28838	38896	
3028	0	32796	35643	32748	32018	35335	
3029	0	32632	35206	32687	35099	24434	
3030	0	32365	35081	32740	37157	35536	
3031	0	32432	35041	32760	36310	42760	
3032	0	32531	34951	32672	32402	46436	
3033	0	32764	34514	32833	29563	48016	
3034	0	32813	34542	32765	29509	44247	
3035	0	32888	34727	32825	30241	37371	
3036	0	32825	35066	32741	31136	29046	
3037	0	32845	34515	32772	32056	20943	
3038	0	32726	33396	32766	32402	20508	
3039	0	32437	31827	32587	33815	23453	
3040	0	32384	30530	32800	35600	15450	
3041	0	32576	30821	32698	36818	20755	
3042	0	32800	32294	32753	35826	39216	
3043	0	33012	32136	32888	33648	49989	
3044	0	33122	29889	32728	31911	49967	
3045	0	33089	27031	32700	31980	39498	
3046	0	33276	25050	32484	33540	15462	
3047	0	33313	25191	32687	33799	13495	
3048	0	33140	28261	32591	32152	21948	
3049	0	32732	32198	32804	30871	22185	
3050	0	32657	34730	32713	28796	31506	
3051	0	32593	35666	32839	26383	40500	
3052	0	32511	36293	32656	29126	42631	
3053	0	32530	36133	32759	34198	38487	
3054	0	32520	35147	32632	40368	42072	
3055	0	32592	33962	32755	43783	42978	
3056	0	32787	32655	32805	41886	42677	
3057	0	33090	32162	32720	33570	50779	
3058	0	33138	31347	32634	28661	44969	
3059	0	33008	30763	32561	28324	28309	
3060	0	32713	30304	32672	27382	17404	
3061	0	32479	30535	32621	28387	16335	
3062	0	32608	32156	32812	30464	32278	
3063	0	32677	33978	32772	32162	35463	
3064	0	32606	36096	32750	33950	31421	
3065	0	32828	37594	32746	34849	18905	
3066	0	33017	37191	32812	34768	18914	
3067	0	33089	35034	32839	34128	29690	
3068	0	33104	31710	32606	33053	40318	
3069	0	33097	29575	32716	32364	46632	
3070	0	32928	30189	32558	30925	52807	
3071	0	32765	30498	32613	30488	54889	
3072	0	32656	30426	32691	31767	47955	
3073	0	32682	31112	32762	33061	31202	
3074	0	32860	30590	32864	35075	12396	
3075	0	32853	30677	32808	34941	972	
3076	0	32934	30999	32799	33844	4563	
3077	0	32792	32049	32530	32915	21098	
3078	0	32516	33477	32690	32345	41634	
3079	0	32418	35254	32653	30543	43570	
3080	0	32702	35299	32799	33554	40693	
3081	0	32736	34468	32839	34237	31175	
3082	0	32775	34491	32796	33950	32555	
3083	0	32846	34341	32850	33141	36499	
3084	0	32967	33666	32604	30215	35139	
3085	0	32895	33987	32740	27835	36412	
3086	0	32845	33797	32668	30086	36499	
3087	0	32812	34075	32769	32276	35019	
3088	0	32756	33603	32596	33358	39469	
3089	0	32969	33442	32711	33588	44242	
3090	0	32720	33730	32629	34119	35826	
3091	0	32638	33641	32816	32795	40357	
3092	0	32652	33421	32721	30123	46087	
3093	0	32642	32653	32752	29526	36241	
3094	0	32637	31201	32731	32784	28245	
3095	0	32706	29857	32813	36552	4806	
3096	0	32710	29595	32552	39132	3062	
3097	0	32704	30672	32704	38372	16825	
3098	0	32728	31968	32630	35746	47352	
3099	0	32839	33323	32775	32770	46442	
3100	0	32728	34226	32630	31300	38114	
3101	0	32804	34311	32741	29579	39111	
3102	0	32922	34039	32643	29514	40071	
3103	0	32914	32727	32684	31389	34550	
3104	0	32844	30964	32496	34182	22200	
3105	0	32863	30497	32671	35110	14162	
3106	0	32760	31316	32616	34015	22893	
3107	0	32793	32353	32709	29649	29273	
3108	0	32839	33679	32583	26657	30695	
3109	0	32928	35792	32759	28743	33321	
3110	0	32729	37004	32731	31751	40107	
3111	0	32628	37538	32730	34162	44062	
3112	0	32634	36807	32710	37035	41878	
3113	0	32848	34420	32791	37293	41509	
3114	0	32738	30972	32820	33720	43746	
3115	0	32648	27641	32793	32034	48923	
3116	0	32826	26156	32697	32873	42912	
3117	0	33024	26016	32716	35496	35378	
3118	0	33104	26924	32671	36030	29647	
3119	0	32858	28528	32756	32263	23252	
3120	0	32715	31416	32742	29100	3909	
3121	0	32526	33994	32737	30394	3846	
3122	0	32470	35385	32733	32414	9589	
3123	0	32741	36039	32824	34473	29586	
3124	0	32845	35460	32681	33402	42485	
3125	0	32710	35622	32683	32949	43506	
3126	0	32572	34989	32602	31984	40246	
3127	0	32549	33375	32789	30573	44799	
3128	0	32591	33452	32809	30482	35161	
3129	0	32584	32526	32723	32992	40250	
3130	0	32504	31829	32695	34733	38772	
3131	0	32498	31736	32637	35694	30379	
3132	0	32713	31179	32628	34695	35049	
3133	0	32948	30896	32612	33940	34740	
3134	0	32948	30155	32775	33890	25838	
3135	0	32841	29703	32583	35070	29293	
3136	0	32902	31161	32786	35283	27647	
3137	0	33001	32580	32733	32285	29218	
3138	0	33037	34186	32775	29572	34392	
3139	0	32972	34737	32716	29270	33687	
3140	0	33040	34652	32824	27553	33598	
3141	0	32910	35478	32757	30720	29421	
3142	0	32868	36050	32824	32519	38808	
3143	0	32976	34959	32808	31561	45223	
3144	0	32955	33032	32690	31706	41126	
3145	0	32744	33068	32719	31039	37815	
3146	0	32728	33694	32660	33178	41275	
3147	0	32377	33672	32775	35385	32539	
3148	0	32176	33337	32721	34438	28258	
3149	0	32408	33570	32845	31151	37104	
3150	0	32696	34042	32751	29166	30254	
3151	0	32857	34228	32748	30235	28626	
3152	0	32841	32689	32581	32839	17184	
3153	0	32713	30025	32632	37673	21877	
3154	0	32696	27050	32657	41236	29846	
3155	0	32863	25182	32800	40564	42083	
3156	0	32930	25225	32802	35262	30824	
3157	0	32868	27364	32871	30078	22989	
3158	0	32688	31099	32775	29203	29498	
3159	0	32470	34681	32802	31551	38087	
3160	0	32568	36069	32728	32839	36537	
3161	0	32620	35426	32869	32903	42310	
3162	0	32864	33293	32747	33904	38218	
3163	0	33008	30328	32751	33572	23517	
3164	0	32957	29575	32688	33261	22817	
3165	0	33046	29886	32742	33677	26479	
3166	0	33058	31604	32580	32955	32102	
3167	0	33004	34618	32740	31256	37924	
3168	0	32840	36392	32704	30149	50870	
3169	0	32820	37369	32769	29698	47003	
3170	0	32793	36281	32696	29885	35099	
3171	0	32711	33593	32628	29993	22661	
