# OpenSignals Text File Format
# {"00:07:80:3B:46:63": {"sensor": ["EMG", "EMG", "EMG", "EMG", "EMG"], "device name": "00:07:80:3B:46:63", "column": ["nSeq", "DI", "CH1", "CH2", "CH3", "CH4", "CH5"], "sync interval": 2, "time": "10:52:44.358", "comments": "", "device connection": "BTH00:07:80:3B:46:63", "channels": [1, 2, 3, 4, 5], "date": "2017-4-28", "mode": 0, "digital IO": [0, 1], "firmware version": 770, "device": "biosignalsplux", "position": 0, "sampling rate": 1000, "label": ["CH1", "CH2", "CH3", "CH4", "CH5"], "resolution": [16, 16, 16, 16, 16], "special": [{}, {}, {}, {}, {}]}}
# EndOfHeader
0	0	30043	32668	36027	32747	32967	
1	0	29937	32835	34871	32731	32965	
2	0	30693	32653	34055	32713	32743	
3	0	30934	32484	34741	32774	32708	
4	0	32478	32636	33702	32826	32731	
5	0	34630	32638	32152	32696	32846	
6	0	36046	32815	32711	32849	32768	
7	0	36124	32819	33895	32791	32757	
8	0	35434	32815	33723	32873	32952	
9	0	33193	32698	31293	32899	32920	
10	0	31079	32631	29264	32849	32833	
11	0	29648	32695	31372	32850	32734	
12	0	29340	32699	34039	32703	32789	
13	0	30537	32664	34071	32791	32950	
14	0	32153	32387	33975	32711	32930	
15	0	33607	32610	32301	32847	32945	
16	0	34594	32352	26991	32933	32784	
17	0	34660	32515	26759	32891	32719	
18	0	34339	32530	30981	32882	32964	
19	0	33819	32749	33282	32668	32923	
20	0	33799	32683	34714	32711	32759	
21	0	33923	32679	35090	32671	32762	
22	0	34195	32605	34811	32751	32726	
23	0	33757	32597	34277	32741	32795	
24	0	32325	32631	33814	32833	32975	
25	0	31348	32743	33113	32870	32946	
26	0	31051	32751	31809	32740	32926	
27	0	31885	32635	32738	32843	32808	
28	0	32306	32745	34345	32789	32687	
29	0	32869	32583	34798	32857	32639	
30	0	32915	32645	35245	32817	32847	
31	0	32168	32615	35651	32853	32979	
32	0	32144	32745	34577	32819	32847	
33	0	32499	32931	33719	32799	32769	
34	0	32090	32683	32694	32835	32735	
35	0	31006	32647	31170	32831	32676	
36	0	30771	32559	28335	32920	32883	
37	0	30864	32555	29935	32693	32951	
38	0	31558	32571	31039	32787	32967	
39	0	32245	32386	32001	32703	32851	
40	0	33226	32566	33799	32743	32726	
41	0	33860	32791	35567	32775	32723	
42	0	33616	32573	34535	32869	32937	
43	0	33222	32615	32041	32885	33011	
44	0	33530	32656	32424	32839	32951	
45	0	34640	32822	31599	32775	32719	
46	0	34625	32727	31423	32664	32695	
47	0	33653	32525	32039	32758	32903	
48	0	32998	32579	32790	32735	33020	
49	0	32150	32613	30427	32851	32727	
50	0	31833	32681	28743	32891	32822	
51	0	32253	32582	31977	32907	32935	
52	0	32880	32697	34159	32839	32903	
53	0	33397	32639	34982	32745	32823	
54	0	33677	32807	34845	32809	32753	
55	0	33446	32609	34162	32743	32745	
56	0	32171	32685	35049	32805	32727	
57	0	31137	32677	35687	32832	32691	
58	0	31689	32611	35683	32835	32811	
59	0	33124	32573	35359	32804	32967	
60	0	33860	32579	33197	32685	32742	
61	0	33344	32591	32985	32707	32845	
62	0	32058	32343	32938	32690	32992	
63	0	31535	32581	30057	32510	32943	
64	0	31860	32631	26343	32621	32741	
65	0	32760	32837	24671	32719	32682	
66	0	33825	32981	29025	32627	32967	
67	0	34887	32819	30572	32818	32927	
68	0	35264	32853	29366	33007	32696	
69	0	33808	32747	31209	33059	32797	
70	0	32413	32732	33510	32979	32923	
71	0	31450	32619	35617	32765	32919	
72	0	31393	32625	35975	32754	32812	
73	0	32481	32475	36103	32719	32731	
74	0	32990	32681	34227	32812	32651	
75	0	32957	32755	32903	32634	32939	
76	0	33322	32809	34203	32875	32775	
77	0	33152	32667	36290	32851	32791	
78	0	32218	32561	36631	32775	32927	
79	0	31337	32691	36719	32683	32735	
80	0	31231	32479	36350	32696	32923	
81	0	31922	32575	32038	32711	32899	
82	0	33414	32455	28929	32760	32707	
83	0	34208	32512	30703	32849	32722	
84	0	34320	32355	31565	32913	32807	
85	0	34311	32477	31128	32883	32982	
86	0	33458	32577	31973	32817	32889	
87	0	31894	32813	29145	32736	32775	
88	0	31074	32937	27731	32809	32848	
89	0	31771	32839	31730	32744	32973	
90	0	33300	32985	32990	32655	32993	
91	0	33684	32979	34530	32653	32949	
92	0	32601	32871	32954	32706	32833	
93	0	31418	32827	32151	32921	32735	
94	0	31158	32801	34311	32821	32950	
95	0	31739	32941	35206	32749	32912	
96	0	33882	32899	35360	32678	32731	
97	0	35084	32711	33525	32805	32809	
98	0	34656	32446	31382	32630	32967	
99	0	34160	32185	29883	32745	32945	
100	0	34455	32361	29319	32750	32863	
101	0	34422	32351	31071	32774	32701	
102	0	33280	32362	33270	32805	32871	
103	0	32422	32540	34823	32791	32950	
104	0	32004	32351	35035	32879	32775	
105	0	31374	32594	34939	32740	32722	
106	0	31208	32583	35137	32749	32788	
107	0	31253	32883	36250	32771	32960	
108	0	31239	32594	36383	32914	32949	
109	0	31222	32695	34487	32850	32873	
110	0	31196	32728	27879	32896	32789	
111	0	31189	32539	26937	32902	32711	
112	0	32048	32603	28445	32638	32667	
113	0	34200	32579	31620	32746	32757	
114	0	35543	32674	32847	32592	32944	
115	0	35713	32562	33330	32647	32977	
116	0	35125	32661	32825	32647	33017	
117	0	34013	32546	33175	32825	32934	
118	0	32730	32634	33947	33039	32920	
119	0	31002	32839	34867	32911	32696	
120	0	30121	32869	35319	32839	32775	
121	0	29768	32903	35802	32759	32926	
122	0	29953	32694	34747	32749	32827	
123	0	30855	32717	32801	32719	32775	
124	0	30917	32533	29683	32835	32827	
125	0	30724	32663	29621	32690	32792	
126	0	31920	32867	31085	32795	32967	
127	0	33902	32661	31858	32733	32845	
128	0	36374	32563	33183	32803	32671	
129	0	37262	32498	34392	32775	32827	
130	0	36895	32677	34387	32815	32962	
131	0	36125	32639	34982	32767	32899	
132	0	34880	32571	36391	32807	32767	
133	0	33149	32775	33829	32795	32710	
134	0	32148	32839	28679	32872	32679	
135	0	31882	32741	26797	32763	32803	
136	0	31712	32775	27905	32790	32961	
137	0	31303	32547	30727	32773	32919	
138	0	31302	32723	33298	32855	32680	
139	0	31444	32719	32892	32889	32797	
140	0	31042	32647	32711	32818	32963	
141	0	31344	32643	33707	32880	32845	
142	0	32258	32543	34151	32762	32711	
143	0	33316	32597	33518	32890	32775	
144	0	34064	32697	32839	32765	32954	
145	0	33660	32583	32875	32825	32940	
146	0	33227	32619	33275	32775	32737	
147	0	33030	32351	33153	32768	32947	
148	0	33362	32473	33473	32813	32928	
149	0	33330	32423	33536	32794	32827	
150	0	32902	32697	33745	32855	32691	
151	0	32101	32815	33625	32705	32775	
152	0	31428	32819	33530	32787	32866	
153	0	31870	32861	33235	32741	33003	
154	0	32342	32775	33163	32775	32927	
155	0	33134	32890	32755	32711	32743	
156	0	33308	32934	31995	32749	32706	
157	0	33351	32775	32697	32733	32915	
158	0	33367	32751	32315	32771	32933	
159	0	33653	32382	31725	32885	32977	
160	0	33565	32379	32306	32792	32967	
161	0	32491	32368	33111	32839	32839	
162	0	31485	32518	33740	32803	32699	
163	0	30546	32615	33979	32809	32720	
164	0	30152	32531	34112	32775	32894	
165	0	30097	32551	34738	32775	33009	
166	0	30565	32775	35861	32734	33027	
167	0	31694	32731	36356	32775	32950	
168	0	32524	32833	35567	32766	32927	
169	0	33287	32525	32813	32877	32997	
170	0	34175	32741	30739	32764	32728	
171	0	35501	32709	29932	32922	32706	
172	0	36141	32787	28152	32735	32827	
173	0	36065	32681	26909	32719	32795	
174	0	35276	32640	26823	32697	32953	
175	0	33961	32445	28285	32815	32931	
176	0	32795	32719	31555	32835	32765	
177	0	32013	32819	33177	32848	32679	
178	0	32221	32761	32329	32975	32851	
179	0	32916	32670	28749	32801	32927	
180	0	32926	32483	29286	32632	32909	
181	0	32637	32683	32807	32593	32903	
182	0	33032	32455	35800	32675	32717	
183	0	33388	32557	36017	32687	32918	
184	0	32170	32560	33547	32713	32913	
185	0	31268	32760	34308	32775	32939	
186	0	30724	32869	35591	32809	32860	
187	0	30746	32704	34965	32839	32835	
188	0	31847	32789	34259	33001	32687	
189	0	32967	32555	33723	32841	32737	
190	0	34910	32667	34756	32809	32741	
191	0	36243	32589	34232	32801	32823	
192	0	35877	32515	33863	32922	32994	
193	0	34564	32571	32751	32869	32958	
194	0	33024	32619	31724	32865	32683	
195	0	31860	32711	31499	32775	32903	
196	0	31500	32509	30480	32871	32918	
197	0	31795	32765	32351	32861	32725	
198	0	32595	32667	32263	32662	33019	
199	0	33246	32623	32285	32687	32823	
200	0	33188	32775	33127	32620	32755	
201	0	32517	32608	34978	32570	32967	
202	0	31613	32610	35371	32654	32883	
203	0	30368	32642	35299	32861	32731	
204	0	30226	32757	34469	33059	32767	
205	0	30716	32819	34053	32855	32679	
206	0	31392	32751	31815	32803	32801	
207	0	31968	32829	29955	32639	32847	
208	0	32966	32607	28867	32839	32985	
209	0	34094	32625	29793	32711	32888	
210	0	35081	32627	32197	32805	32897	
211	0	35923	32407	32101	32741	32775	
212	0	36423	32365	32429	32843	32823	
213	0	35525	32339	32775	32839	32933	
214	0	33404	32575	33523	32743	32825	
215	0	31872	32423	34281	32767	32743	
216	0	30964	32697	33507	32663	32766	
217	0	30566	32657	32416	32759	32881	
218	0	30574	32801	30505	32799	32902	
219	0	30808	32850	31079	32765	32886	
220	0	31112	32673	33132	32883	32891	
221	0	31184	32822	32967	32722	32945	
222	0	31416	32647	32973	32775	32870	
223	0	31978	32839	33799	32839	32775	
224	0	32789	32861	33123	32813	32735	
225	0	33799	32676	32935	32837	32861	
226	0	34342	32615	34279	32749	32883	
227	0	34632	32300	34855	32809	32963	
228	0	34109	32341	35207	32847	32931	
229	0	33119	32391	35057	32882	32927	
230	0	32675	32607	33275	32918	32775	
231	0	32325	32535	31809	32679	32815	
232	0	31333	32699	31707	32717	32772	
233	0	30540	32943	32321	32787	32839	
234	0	30361	33023	31329	32863	32967	
235	0	31049	32793	30726	32972	32939	
236	0	32058	32683	32443	32937	32691	
237	0	33304	32640	33150	32931	32675	
238	0	34896	32476	33671	32775	32691	
239	0	35860	32667	33711	32829	32697	
240	0	36524	32751	32508	32833	32743	
241	0	36601	32687	30383	32711	32827	
242	0	35585	32717	32247	32797	32923	
243	0	34102	32694	33607	32657	33028	
244	0	32029	32733	33920	32688	32856	
245	0	30705	32653	32474	32679	32758	
246	0	30142	32775	30740	32630	32710	
247	0	30377	32579	30657	32767	32767	
248	0	30434	32602	30119	32837	32802	
249	0	30358	32583	30338	32925	32851	
250	0	30619	32611	31279	32746	32947	
251	0	32537	32625	31851	32911	32821	
252	0	34770	32503	32807	32775	32967	
253	0	37293	32569	32647	32863	32899	
254	0	37458	32517	33095	32812	32735	
255	0	36359	32615	33491	32855	32861	
256	0	34289	32598	34255	32741	32967	
257	0	32210	32685	35103	32799	32944	
258	0	30781	32534	35636	32736	32773	
259	0	30230	32679	35899	32733	32967	
260	0	30036	32563	36263	32733	32878	
261	0	30082	32704	35303	32673	32696	
262	0	30109	32815	33759	32735	32903	
263	0	31121	32711	34327	32763	32902	
264	0	32346	32687	32387	32886	32721	
265	0	33605	32489	28900	32833	32775	
266	0	34506	32597	27113	32911	32936	
267	0	34587	32468	29851	32762	32977	
268	0	33739	32691	31931	32737	32915	
269	0	33242	32683	30301	32682	32839	
270	0	33082	32463	31567	32754	32886	
271	0	32062	32592	34336	32763	32843	
272	0	31525	32606	35974	32751	32866	
273	0	32027	32839	35254	32711	32711	
274	0	32716	32801	32070	32837	32851	
275	0	33339	32703	31655	32815	32939	
276	0	33068	32727	31932	32839	32895	
277	0	32557	32487	32114	32817	32886	
278	0	32253	32797	33565	32850	32850	
279	0	32423	32791	34718	32770	32950	
280	0	33344	32635	32478	32869	32925	
281	0	33384	32718	29819	32813	32879	
282	0	32387	32809	29041	32886	32725	
283	0	33370	32749	31570	32870	32795	
284	0	34898	32762	33302	32775	32721	
285	0	36952	32722	34438	32655	32759	
286	0	36751	32699	34334	32743	32659	
287	0	34085	32550	32291	32862	32687	
288	0	31525	32343	32080	32851	32715	
289	0	29985	32680	33463	32915	32946	
290	0	30655	32669	33359	32858	32915	
291	0	32249	32815	33779	32832	32967	
292	0	34475	32771	34760	32616	32935	
293	0	35219	32499	34183	32727	32867	
294	0	34183	32489	32098	32681	32803	
295	0	32324	32359	31938	32746	32717	
296	0	30339	32383	33165	32846	32949	
297	0	29370	32377	33883	32833	32930	
298	0	29785	32439	34277	32811	32896	
299	0	30727	32589	32847	32681	32857	
300	0	32013	32703	31343	32847	32745	
301	0	32459	32795	31081	32855	32853	
302	0	32428	32621	30051	32775	32787	
303	0	33005	32659	31481	32539	32750	
304	0	34176	32698	32575	32622	33039	
305	0	34992	32743	33013	32731	32890	
306	0	35271	32647	32972	32793	32775	
307	0	33676	32545	33170	32611	32705	
308	0	32352	32623	33495	32691	32903	
309	0	31270	32859	33310	32743	32981	
310	0	30998	32947	33690	32635	32711	
311	0	31435	32923	33605	32694	32807	
312	0	31988	32909	34346	32659	32919	
313	0	31292	32839	35847	32653	32767	
314	0	30455	32877	35867	32664	32655	
315	0	29989	32695	33159	32743	32816	
316	0	29373	32680	27960	32813	32927	
317	0	30550	32475	29891	32787	32943	
318	0	33892	32672	32007	32738	32923	
319	0	37486	32666	31685	32937	32722	
320	0	38510	32470	31856	32921	32802	
321	0	38023	32347	33147	32906	32985	
322	0	36568	32407	32761	32871	32961	
323	0	34944	32523	30433	32865	32965	
324	0	34016	32762	30059	32922	32749	
325	0	33721	32711	32517	32746	32813	
326	0	32762	32720	35405	32775	32871	
327	0	31865	32748	36847	32708	32941	
328	0	31352	32742	33829	32643	32973	
329	0	31160	32895	30364	32743	32855	
330	0	31386	32743	29683	33045	32720	
331	0	30741	32759	31186	32820	32741	
332	0	29794	32829	32941	32813	32806	
333	0	29210	32658	34081	32707	32819	
334	0	29669	32647	35103	32717	32967	
335	0	30710	32417	34834	32773	32978	
336	0	32681	32583	35241	32743	32915	
337	0	34894	32615	32898	32805	32767	
338	0	35723	32517	30035	32826	32726	
339	0	35121	32579	31394	32889	32765	
340	0	33722	32399	32327	32733	32827	
341	0	32488	32643	31965	32865	32863	
342	0	32050	32737	31363	32601	32711	
343	0	32826	32687	31803	32811	32647	
344	0	33287	32751	32047	32711	32763	
345	0	33297	32825	32333	32813	32738	
346	0	33172	32741	33509	32807	32749	
347	0	33466	32683	34381	32775	32835	
348	0	33522	32472	33997	32787	32692	
349	0	33681	32574	33729	32752	32727	
350	0	33371	32575	32631	32910	32639	
351	0	33237	32583	31887	32731	32647	
352	0	32978	32569	32119	32875	32711	
353	0	32841	32589	33443	32775	32770	
354	0	32710	32532	34290	32769	32763	
355	0	32990	32679	34047	32855	32703	
356	0	32664	32903	33217	32774	32751	
357	0	31602	32919	31818	32749	32775	
358	0	31104	32839	30912	32898	32871	
359	0	30981	32673	31813	32801	32898	
360	0	30856	32770	32863	32839	32997	
361	0	30709	32639	33042	32866	32911	
362	0	31139	32438	33205	32839	32775	
363	0	32718	32517	33284	32735	32736	
364	0	34130	32424	33682	32903	32729	
365	0	34626	32581	34369	32718	32719	
366	0	34178	32633	34385	32819	32827	
367	0	33496	32507	34189	32765	32918	
368	0	32648	32711	33823	32739	32899	
369	0	32364	32707	31943	32766	32983	
370	0	33097	32450	30904	32839	32877	
371	0	33716	32507	30503	32809	32737	
372	0	33645	32579	31456	32873	32707	
373	0	33164	32685	32447	32765	32739	
374	0	33058	32667	31239	32854	32747	
375	0	33535	32543	31105	32775	32932	
376	0	33890	32601	32647	32805	33007	
377	0	33342	32720	33703	32775	32957	
378	0	32622	32767	33894	32813	32873	
379	0	31993	32919	33395	32947	32817	
380	0	31595	32681	34153	32967	32703	
381	0	31160	32739	34272	32775	32853	
382	0	31073	32662	32466	32927	32982	
383	0	31192	32831	28710	32775	33049	
384	0	31495	32899	29371	32863	32955	
385	0	32020	32618	31207	32685	32853	
386	0	32976	32733	33479	32728	32677	
387	0	33829	32679	34251	32637	32663	
388	0	33386	32775	34025	32707	32765	
389	0	32825	32711	33223	32633	32744	
390	0	32121	32577	33383	32860	32827	
391	0	32080	32831	31947	32742	32868	
392	0	33185	32711	30967	32669	32871	
393	0	35500	32725	30111	32690	32863	
394	0	37142	32666	33272	32795	32870	
395	0	36743	32630	34631	32870	32870	
396	0	34224	32695	35575	32895	32896	
397	0	31973	32567	36055	32886	32926	
398	0	31010	32687	35045	32941	32959	
399	0	30798	32849	31635	33017	32800	
400	0	30568	32835	31685	32770	32751	
401	0	31029	32845	31653	32673	32875	
402	0	31047	32583	32306	32571	33031	
403	0	31163	32500	30727	32839	32967	
404	0	32263	32599	31107	32706	32752	
405	0	33664	32767	33088	32769	32727	
406	0	34845	32775	31275	32647	32713	
407	0	35428	32662	29575	32789	32757	
408	0	34179	32622	31345	32805	32961	
409	0	33415	32519	33957	32861	32952	
410	0	32764	32519	34759	32787	32995	
411	0	32546	32439	35437	32754	32935	
412	0	33080	32672	36673	32775	32903	
413	0	33276	32709	35967	32771	32723	
414	0	33237	32729	31182	32861	32775	
415	0	33286	32675	28647	32671	32975	
416	0	33040	32702	31207	32829	32978	
417	0	32417	32818	32423	32711	32851	
418	0	32144	32600	30873	32759	32853	
419	0	31893	32732	28125	32711	32807	
420	0	32460	32743	29813	32753	32675	
421	0	33200	32487	33175	32696	32696	
422	0	33323	32578	34962	32795	32775	
423	0	32617	32667	35627	32688	32823	
424	0	31737	32631	35315	32820	32973	
425	0	31301	32599	33597	33106	32918	
426	0	31704	32419	32947	32888	32749	
427	0	32821	32647	33756	32879	32839	
428	0	33448	32681	33235	32823	32983	
429	0	34339	32667	33088	32853	32775	
430	0	34608	32735	31847	32705	32839	
431	0	34010	32559	31446	32765	32909	
432	0	32736	32707	31583	32839	32871	
433	0	32157	32630	32263	32707	32704	
434	0	31643	32759	33581	32805	32775	
435	0	31724	32699	34657	32666	32799	
436	0	32121	32553	35327	32753	32963	
437	0	32544	32539	35033	32693	32962	
438	0	32578	32447	34718	32762	32967	
439	0	32553	32664	35239	32711	32919	
440	0	32716	32675	35505	32809	32947	
441	0	32844	32403	34671	32747	32989	
442	0	32694	32640	33019	32805	32955	
443	0	32236	32640	33257	32737	32881	
444	0	31372	32758	33491	32765	32711	
445	0	30444	32815	29646	32877	32946	
446	0	30567	32471	26790	32869	32921	
447	0	31431	32607	26731	32930	32827	
448	0	32362	32943	29087	32835	32832	
449	0	34086	32895	29191	32726	32764	
450	0	34818	32695	30151	32775	32726	
451	0	34540	32747	33437	32739	32815	
452	0	34243	32575	35355	32803	32876	
453	0	34352	32666	34720	32753	32973	
454	0	34252	32707	31837	32859	32957	
455	0	33159	32708	28374	32821	32775	
456	0	32464	32775	31732	32775	32727	
457	0	31709	32697	34418	32761	32655	
458	0	30948	32801	34455	32857	32727	
459	0	30442	32575	34460	32942	32675	
460	0	30176	32285	34271	32855	32747	
461	0	30701	32491	34591	32929	32813	
462	0	31883	32555	35207	32812	32735	
463	0	33010	32501	34805	32720	32735	
464	0	34857	32767	34592	32797	32740	
465	0	35866	32791	34227	32909	32861	
466	0	36308	32681	33207	32807	32879	
467	0	35891	32812	31852	32762	32911	
468	0	34731	32887	31861	32673	32915	
469	0	33705	32758	31018	32719	33003	
470	0	34665	32775	31874	32679	32967	
471	0	34296	32624	33815	32836	32999	
472	0	32578	32337	36014	32939	32966	
473	0	31093	32610	36261	33000	32872	
474	0	29438	32679	31361	32919	32728	
475	0	29190	32381	32209	32869	32929	
476	0	30084	32628	31749	32839	32941	
477	0	31334	32707	30069	32620	32818	
478	0	32614	32559	27767	32629	32943	
479	0	33049	32808	26622	32879	32937	
480	0	33498	32829	29863	32921	32824	
481	0	33650	32702	35737	32809	32848	
482	0	34574	32615	36091	32875	32851	
483	0	34202	32565	34643	32711	32859	
484	0	32330	32728	33200	32860	32926	
485	0	31026	32471	30101	32849	32967	
486	0	31132	32635	29075	32851	32951	
487	0	32387	32517	30417	32825	32955	
488	0	34090	32312	32194	32717	32964	
489	0	34816	32461	34031	32770	32976	
490	0	36232	32472	35571	32725	32935	
491	0	36288	32573	37054	32583	32938	
492	0	34478	32759	36359	32599	32930	
493	0	32402	33019	34087	32608	32926	
494	0	31916	32915	33366	32947	32965	
495	0	30973	32941	31177	32985	32865	
496	0	29806	32722	31973	32843	32805	
497	0	28985	32827	32071	32886	32890	
498	0	29563	32884	31879	32751	32769	
499	0	31978	32667	33852	32789	32701	
500	0	34208	32679	34267	32738	32790	
501	0	35264	32511	31318	32732	32933	
502	0	33705	32471	31451	32646	33015	
503	0	31552	32466	30215	32823	32933	
504	0	31378	32740	30567	32903	32937	
505	0	32220	32667	32003	32855	32834	
506	0	33107	32771	32130	32711	32699	
507	0	32848	32748	34770	32575	32891	
508	0	32473	32547	36295	32787	32917	
509	0	32805	32658	36591	32767	32975	
510	0	33296	32334	34635	32837	32923	
511	0	34134	32315	32455	32683	32727	
512	0	34558	32240	33594	32775	32821	
513	0	34792	32455	34023	32729	32896	
514	0	33146	32421	34161	32809	33006	
515	0	31165	32503	33842	32775	32951	
516	0	29842	32687	32263	32871	32903	
517	0	30134	32647	29810	32964	32839	
518	0	31746	32885	25242	32855	32689	
519	0	34095	32583	26523	32847	32803	
520	0	35525	32771	27987	32483	32979	
521	0	36027	32819	28413	32697	32930	
522	0	35322	32749	31589	32615	32809	
523	0	34162	32882	33757	32722	32751	
524	0	32802	32643	36125	32727	32815	
525	0	31815	32883	37591	32775	32914	
526	0	31042	32803	38619	32775	32995	
527	0	31112	33022	37767	32867	32873	
528	0	31525	33082	36380	33133	32868	
529	0	32047	32923	35971	33019	32857	
530	0	31513	32909	33561	32927	32829	
531	0	31788	32791	30366	32743	32760	
532	0	32502	32813	27177	32835	32691	
533	0	32631	32629	29682	32775	32721	
534	0	32946	32539	31459	32995	32751	
535	0	32094	32309	32070	32825	32766	
536	0	31432	32091	32750	32871	32937	
537	0	31664	32039	33321	32607	32912	
538	0	33892	31926	34683	32551	32733	
539	0	35568	32146	33856	32544	32801	
540	0	36810	32235	32625	32720	32854	
541	0	36751	32583	33435	32919	32888	
542	0	35025	32847	33534	32893	32953	
543	0	32229	33043	31239	32977	32861	
544	0	30816	33315	29997	32755	32711	
545	0	31031	33177	31968	32741	32907	
546	0	32382	33267	33346	32549	32929	
547	0	32576	33339	35755	32611	32902	
548	0	31928	33360	36975	32654	32709	
549	0	31276	33076	37671	32853	32807	
550	0	30772	32629	37333	32995	32793	
551	0	29952	32705	34951	32929	32751	
552	0	28907	32587	28440	32728	32701	
553	0	29639	32251	27861	32869	32815	
554	0	32050	32083	30869	32743	32835	
555	0	34323	32103	31012	32785	32795	
556	0	35712	32003	27106	32659	32888	
557	0	36888	32339	27970	32807	32985	
558	0	36647	32306	31615	32785	32995	
559	0	34212	32659	31591	32719	32913	
560	0	32564	32865	29784	32869	32931	
561	0	31638	32627	29877	32873	33017	
562	0	32451	32831	31444	32895	33003	
563	0	33833	32616	33707	32775	33007	
564	0	35222	32370	34887	32679	32880	
565	0	35318	32451	35119	32615	32953	
566	0	34971	32468	35903	32613	32852	
567	0	33082	32510	35200	32699	32775	
568	0	31008	32771	34518	32799	32690	
569	0	30016	33328	34311	32813	32726	
570	0	30052	33274	35087	32967	32775	
571	0	29561	33356	36837	33016	32939	
572	0	29634	33497	37383	32899	32903	
573	0	29833	33254	37199	32747	32775	
574	0	30694	33033	35047	32583	32731	
575	0	31392	32972	31405	32700	32773	
576	0	32131	32343	26569	32939	32919	
577	0	32948	32070	29031	32903	32903	
578	0	33006	31833	30549	32847	32691	
579	0	32981	31533	31461	32898	32839	
580	0	33473	31631	30638	33055	32921	
581	0	35188	31879	30552	32973	32702	
582	0	36300	32119	31988	32889	32989	
583	0	36672	32185	32767	32799	32848	
584	0	36848	32301	32937	32775	32807	
585	0	35248	32606	32775	32640	32855	
586	0	32989	33091	32485	32687	32773	
587	0	31830	33559	33299	32578	32877	
588	0	32195	33951	33981	32704	32871	
589	0	33314	33679	34062	32775	32665	
590	0	34591	33426	32360	32910	32854	
591	0	35289	32694	31942	32903	32939	
592	0	33671	32391	33265	32940	32875	
593	0	30980	32523	33799	32875	32809	
594	0	29191	32633	32583	32839	32746	
595	0	29320	32903	30086	32645	32959	
596	0	30497	32570	31762	32737	32910	
597	0	31239	32210	35387	32658	32678	
598	0	32029	31762	37148	32637	32900	
599	0	32495	31859	38701	32722	32898	
600	0	31780	32161	34691	32818	32802	
601	0	31303	32775	32243	32652	32727	
602	0	31277	33242	28813	32555	32967	
603	0	32508	33115	29751	32855	32903	
604	0	33829	33205	31739	32628	32795	
605	0	34082	32991	32277	32615	32839	
606	0	31968	32984	28934	33012	32920	
607	0	30536	32775	27007	32674	32831	
608	0	30352	32703	29527	32775	32839	
609	0	31180	32883	30327	32820	32947	
610	0	34120	32882	30288	32921	32839	
611	0	37962	33180	32792	32877	32735	
612	0	38795	33144	34189	32903	32977	
613	0	36783	32995	34440	32877	32754	
614	0	34156	32339	35234	32651	32914	
615	0	33229	31966	37721	32791	32896	
616	0	33308	31847	38591	32822	32690	
617	0	34053	31921	36927	32809	32737	
618	0	34409	31878	33395	32827	32925	
619	0	34612	31979	33461	32839	32685	
620	0	32216	32159	34136	32919	32845	
621	0	29588	32251	32276	32625	32828	
622	0	27695	32400	30006	32711	32658	
623	0	27134	32362	30398	32775	32827	
624	0	26340	32481	31887	32711	32911	
625	0	25890	32769	32739	32831	32935	
626	0	27128	33321	33810	32794	32759	
627	0	32344	33627	35832	32870	32660	
628	0	39507	33983	35260	32658	32794	
629	0	43802	33991	32484	32438	32960	
630	0	42664	33808	29318	32595	33003	
631	0	38268	33433	27853	32908	32799	
632	0	34219	33173	29797	33033	32731	
633	0	31740	32749	30765	33011	33031	
634	0	30397	32336	32594	32853	32970	
635	0	30009	31687	35803	32681	32809	
636	0	31532	31885	35361	32711	32711	
637	0	31895	32146	31039	32805	32758	
638	0	32345	32537	29603	32914	32791	
639	0	32670	32566	31111	32825	32903	
640	0	32524	32327	33727	32821	32877	
641	0	33068	32538	32898	32736	32787	
642	0	34604	32263	31350	32755	32975	
643	0	35140	31938	32887	32673	32851	
644	0	34413	31741	32102	32743	32676	
645	0	32882	31361	28962	32549	32785	
646	0	31606	31707	29351	32770	33001	
647	0	31524	32321	32574	32715	32895	
648	0	30965	33315	33131	32722	32717	
649	0	31395	34663	33311	32733	32898	
650	0	32124	35694	34998	32868	32920	
651	0	33158	36158	35961	32775	32918	
652	0	32637	35521	35258	32871	32727	
653	0	32666	34083	34932	33061	32893	
654	0	32280	32023	34978	33121	32895	
655	0	31230	30040	35379	33220	32679	
656	0	30456	28695	34301	33030	32740	
657	0	30377	28280	34498	32898	32885	
658	0	29703	29138	35227	32853	32927	
659	0	29437	30005	35015	33029	32978	
660	0	28836	31330	32455	32898	32707	
661	0	28726	32443	31504	32659	32741	
662	0	29261	33551	33559	32653	32926	
663	0	31202	34178	35319	32669	32793	
664	0	33991	34155	32242	32775	32743	
665	0	36374	34245	28992	32594	32990	
666	0	37615	34025	28103	32766	32789	
667	0	39741	34206	31606	32713	32877	
668	0	41246	33974	35227	32693	32935	
669	0	41468	33932	35541	32591	32882	
670	0	39305	33639	30823	32680	32755	
671	0	36042	33071	28859	32690	32681	
672	0	31688	32746	29830	32725	32848	
673	0	28956	32163	30279	32930	33015	
674	0	27940	32453	30761	32673	32933	
675	0	29127	32253	31403	32617	32730	
676	0	29643	32048	33208	32573	32741	
677	0	29924	32615	34258	33027	32877	
678	0	31759	33063	32809	32825	32955	
679	0	33753	33106	30255	32932	32756	
680	0	35290	32994	30237	32775	32658	
681	0	35738	32379	34130	33053	32893	
682	0	35174	31949	37149	33012	32983	
683	0	32080	31651	39465	32917	32865	
684	0	28224	31308	36086	32791	32741	
685	0	25430	31901	28901	32829	33012	
686	0	24446	32399	25671	32528	32903	
687	0	25285	33110	26949	32527	32832	
688	0	26638	33458	30173	32557	32722	
689	0	29160	33409	33865	32619	32967	
690	0	32754	33426	38235	32672	32732	
691	0	37020	33440	38193	32854	32927	
692	0	39424	33206	33708	33120	32944	
693	0	41625	33107	31751	33051	32747	
694	0	42084	33236	35506	32869	32975	
695	0	40828	33055	37483	32492	32812	
696	0	37496	32621	36480	32383	32831	
697	0	34203	32295	36293	32804	33001	
698	0	33372	32203	32391	32715	32837	
699	0	33744	31973	29004	32696	32674	
700	0	34047	32409	25584	32730	32930	
701	0	33415	32263	24871	32987	32903	
702	0	30974	32230	29952	33007	32675	
703	0	28108	31843	33577	32986	32835	
704	0	27722	32006	36975	32997	32967	
705	0	28506	32276	36832	33021	32953	
706	0	27545	32535	34803	33019	32697	
707	0	27950	33127	34793	32775	32927	
708	0	28160	33910	32442	32696	32722	
709	0	29370	34165	34951	32698	32676	
710	0	32402	33827	37631	32603	32722	
711	0	34857	33735	33486	32583	32848	
712	0	36117	33575	27756	32236	32847	
713	0	35920	33998	30599	32500	32812	
714	0	34946	34310	34156	32539	32833	
715	0	35200	33974	28421	32775	32869	
716	0	36729	32995	25351	33019	32928	
717	0	37547	31819	28167	33188	32788	
718	0	36408	30343	33337	33351	33043	
719	0	34264	29545	35207	33082	32799	
720	0	33488	29618	36085	33029	32979	
721	0	33344	30425	32387	33042	32795	
722	0	34330	31878	28265	33063	32884	
723	0	33283	33149	27591	33101	32927	
724	0	31366	34256	30633	33021	32861	
725	0	29416	34228	37449	33056	32680	
726	0	28679	32838	44167	32960	32891	
727	0	28260	31913	47378	32659	32673	
728	0	28548	31583	42774	32129	32914	
729	0	29108	32326	35237	31570	32803	
730	0	29314	33095	27689	31619	32771	
731	0	30482	34224	25936	32687	32925	
732	0	32289	35305	26232	33371	32954	
733	0	32836	35060	22469	33178	32726	
734	0	34360	34300	22964	33040	32930	
735	0	36196	32323	26345	32738	32876	
736	0	37600	30116	33459	32391	32833	
737	0	38569	28818	36857	32538	32919	
738	0	38778	28690	31374	32918	32756	
739	0	37932	29971	26066	33061	32768	
740	0	36140	32350	24368	33123	32973	
741	0	33560	34149	30773	32947	32905	
742	0	30068	34547	36386	33064	32694	
743	0	27146	33769	38666	33164	32882	
744	0	27496	32979	39203	33063	32962	
745	0	29625	32111	38577	33004	32809	
746	0	31160	31989	36141	32690	32775	
747	0	32500	32059	32502	32485	32962	
748	0	33208	32485	32141	32757	32930	
749	0	31632	32835	34968	32961	32701	
750	0	29090	33280	36751	32903	32875	
751	0	28691	33014	38393	33183	32907	
752	0	29836	32903	40645	32737	32792	
753	0	30206	33216	40153	32085	32767	
754	0	32424	33732	34471	32272	32805	
755	0	35880	34422	31607	32273	32941	
756	0	37217	35023	32956	32975	32768	
757	0	35069	35476	26732	32404	32770	
758	0	34752	35154	28155	32581	32992	
759	0	36883	34805	32835	32563	32902	
760	0	38104	33423	34943	32843	32745	
761	0	35652	31734	31751	33048	32971	
762	0	33559	29904	30315	32894	32759	
763	0	33198	29216	38042	32950	32845	
764	0	32251	29285	42457	32897	32871	
765	0	30664	29968	33742	32760	32688	
766	0	29572	31184	25680	32682	32809	
767	0	30574	32329	20676	32815	32873	
768	0	32869	32873	18840	32614	32685	
769	0	34629	33723	21632	32603	32950	
770	0	34534	33707	27227	32624	32833	
771	0	32568	33095	32426	32674	32763	
772	0	29816	32748	34742	32737	32940	
773	0	28381	32118	37303	32775	33017	
774	0	29740	32159	33484	32806	32996	
775	0	32908	32343	27928	33016	32844	
776	0	34656	33005	25514	32961	32738	
777	0	35527	33932	29485	32926	32727	
778	0	35410	33922	35533	32839	32944	
779	0	33722	33586	41064	32863	32886	
780	0	32235	32843	42175	32946	32790	
781	0	31446	32246	40163	33143	32795	
782	0	31348	31771	40059	32967	32963	
783	0	31720	31434	34535	32775	32651	
784	0	32880	31643	30372	32727	32877	
785	0	33321	32147	30783	32815	32920	
786	0	34346	32679	33922	32934	32942	
787	0	35335	33322	34191	32797	32735	
788	0	34441	34011	37987	32650	32768	
789	0	34240	34305	37939	32391	32834	
790	0	32789	34610	35577	32366	32837	
791	0	31097	33981	36148	32587	32675	
792	0	31625	33602	34856	32795	32849	
793	0	32867	33061	30626	32647	32943	
794	0	31837	32067	25472	32669	32871	
795	0	29980	31604	27719	32771	32747	
796	0	28832	32115	29787	32706	32950	
797	0	28685	31739	28054	33122	32960	
798	0	28987	31161	25384	33085	32775	
799	0	29679	31431	26906	33055	32753	
800	0	31209	31747	29860	32807	32987	
801	0	32746	32358	34567	32775	32895	
802	0	34722	32930	38498	32681	32720	
803	0	36234	33266	39884	32507	32757	
804	0	37800	33318	39941	32553	32999	
805	0	38061	32981	38296	32681	32775	
806	0	36061	32381	35869	32936	32646	
807	0	34048	31840	35466	33243	32927	
808	0	32751	31632	38115	33357	32809	
809	0	32594	32104	38773	33215	32695	
810	0	35531	32728	35611	33014	32946	
811	0	39169	33120	26543	32980	32952	
812	0	39623	32829	18002	32669	32786	
813	0	37921	32403	15856	32669	32935	
814	0	36054	32509	17243	32575	32982	
815	0	33951	32761	23559	32331	32680	
816	0	32617	33298	32559	32422	32820	
817	0	31698	33817	39487	32408	32896	
818	0	28338	33934	42075	32696	32653	
819	0	25515	34106	43772	33438	32937	
820	0	23680	34196	48055	33600	32792	
821	0	23161	33772	48445	32600	32738	
822	0	24816	33247	44197	32492	32974	
823	0	25140	32624	33434	32367	32953	
824	0	23805	32159	23196	32538	32742	
825	0	24309	32333	16419	32605	32924	
826	0	29056	32821	13737	32506	32955	
827	0	33985	33799	18518	32786	32760	
828	0	40404	34304	28218	32706	33005	
829	0	44690	33704	35170	32768	32919	
830	0	42106	32575	37945	32941	32813	
831	0	37015	31639	38525	32915	32795	
832	0	32094	31083	35963	32828	33044	
833	0	28856	30528	34662	32818	32891	
834	0	29306	30147	38243	32816	32731	
835	0	33004	30473	36109	32884	32845	
836	0	36857	31231	31675	32957	32969	
837	0	39177	31915	27743	33264	32755	
838	0	41636	32231	25325	33088	32869	
839	0	43591	32228	30343	32665	32937	
840	0	42326	32711	33640	32171	32747	
841	0	38240	33446	32611	32766	33028	
842	0	34737	33816	30717	32846	32962	
843	0	31200	33987	30984	32891	32793	
844	0	28796	33341	34016	32800	32853	
845	0	27625	33171	36616	32647	32859	
846	0	26056	33304	38218	32615	32723	
847	0	23880	34174	38171	32630	32898	
848	0	22712	35078	39771	32580	32745	
849	0	23750	34905	43358	32786	32745	
850	0	27720	34253	43731	33045	32759	
851	0	32873	32797	39214	32811	32833	
852	0	36482	30947	35015	32343	32914	
853	0	37373	29923	34082	32482	32796	
854	0	35525	29859	29426	32758	32895	
855	0	34049	30273	25753	32614	32928	
856	0	32250	31423	24781	32737	32775	
857	0	31632	32706	19175	32775	32916	
858	0	32181	33393	21779	32672	32742	
859	0	32356	33331	29245	32685	32982	
860	0	32880	33081	34620	33024	32869	
861	0	33240	32249	32621	33378	32891	
862	0	33227	31542	26057	33475	32942	
863	0	33113	31519	23411	33533	32775	
864	0	33990	31815	27735	33378	32971	
865	0	34898	32236	36490	33216	32902	
866	0	35192	33021	43384	33032	32722	
867	0	34532	34302	45691	32731	32793	
868	0	33238	34797	42896	32453	32809	
869	0	31096	34109	42928	32528	32941	
870	0	29409	33327	41887	32587	32914	
871	0	30336	31960	30088	32398	32828	
872	0	32348	31367	13472	32352	32696	
873	0	36306	31338	11803	32769	32937	
874	0	41384	31845	22944	32576	33030	
875	0	43156	32526	33278	32851	32911	
876	0	40517	33167	38195	32392	32812	
877	0	36325	33620	41456	31777	32790	
878	0	33234	33709	39899	32051	33009	
879	0	29490	34134	32146	32441	32953	
880	0	24856	34244	29302	33107	32775	
881	0	22688	34287	28750	33668	32741	
882	0	24077	33366	32365	33049	32899	
883	0	27222	31994	35229	32553	32698	
884	0	29887	31289	37319	32837	32966	
885	0	32056	30599	39911	33272	32898	
886	0	32539	31311	39695	33242	32749	
887	0	31400	32598	39591	32818	32769	
888	0	29560	32975	40675	32936	32993	
889	0	27224	33735	36776	32740	32799	
890	0	26700	33963	30193	32661	32765	
891	0	28939	34168	22545	32767	32931	
892	0	33539	34015	25394	32839	32677	
893	0	38137	33420	35770	32997	32908	
894	0	41456	32615	38450	32870	32702	
895	0	42620	32110	33162	32569	32879	
896	0	40920	32023	25452	32529	32967	
897	0	37670	32263	20334	32557	32889	
898	0	35090	32593	24583	32451	32794	
899	0	33836	32921	28319	32999	32843	
900	0	34426	33186	34320	32801	33003	
901	0	33356	33799	40275	32656	32860	
902	0	30893	34048	41680	32583	32742	
903	0	29776	33148	38727	32912	32946	
904	0	28696	31846	35335	33432	32899	
905	0	28699	30457	32859	33350	32797	
906	0	30956	30495	27115	33341	32728	
907	0	33538	30945	27268	32551	32910	
908	0	35335	32089	34546	31648	32870	
909	0	35186	33339	35655	32199	32742	
910	0	33806	33913	29407	32775	32937	
911	0	31408	33837	26885	32943	32717	
912	0	29309	33262	25829	32775	32833	
913	0	29562	31766	25200	32647	32974	
914	0	31849	29734	24432	32337	32671	
915	0	35726	29165	29947	32327	32872	
916	0	37478	28610	35771	32018	32923	
917	0	35490	29561	37295	31967	32697	
918	0	32154	31932	38329	33126	32932	
919	0	30668	34591	39239	34013	32864	
920	0	31805	37366	39611	33647	32845	
921	0	34405	38951	38665	33405	32969	
922	0	35536	40004	38770	33716	32738	
923	0	35142	38783	34528	33415	32952	
924	0	32532	36468	29306	32999	32965	
925	0	30526	32263	24084	32950	32720	
926	0	30475	28280	24307	32701	32934	
927	0	32760	25912	29782	33009	32914	
928	0	35050	25875	37824	33025	32795	
929	0	33786	26949	41359	32399	32742	
930	0	31596	28491	39901	31878	32993	
931	0	30418	30264	36077	32102	32939	
932	0	30788	31344	27386	33154	32873	
933	0	31077	31281	20977	33051	32656	
934	0	31156	31575	24665	33117	32670	
935	0	31451	32551	31207	32937	32854	
936	0	32217	33577	35936	32825	32812	
937	0	32028	34576	38371	32611	32887	
938	0	31480	35527	39747	32507	32688	
939	0	31589	35281	40914	32363	32950	
940	0	31937	34618	41474	32255	32818	
941	0	35736	34227	43271	32381	32747	
942	0	38404	34228	44550	32660	32937	
943	0	36731	33970	43815	32827	33005	
944	0	34311	34101	35243	32912	32806	
945	0	30583	34654	26974	32508	32900	
946	0	28328	35645	23168	32448	33027	
947	0	28482	35598	16581	32522	32849	
948	0	28014	34525	12596	32667	32769	
949	0	28865	33009	18255	32773	32941	
950	0	30516	31298	18777	33156	32865	
951	0	32032	30386	23230	33637	32616	
952	0	34746	29922	28713	33609	32682	
953	0	37562	30306	33922	33529	32787	
954	0	39252	31222	38119	32971	32853	
955	0	38343	32293	39717	32849	32705	
956	0	38531	33327	38110	32595	32639	
957	0	38030	34148	38171	32350	32844	
958	0	35254	34598	38381	31773	32979	
959	0	32384	34310	39679	31881	33055	
960	0	31794	33586	40519	32631	32860	
961	0	31860	32626	41874	32711	32770	
962	0	33426	31537	41815	32391	32788	
963	0	33610	31019	40731	32598	32997	
964	0	33041	30962	38803	32901	32797	
965	0	32052	31513	33113	32865	32898	
966	0	29520	32210	28718	32657	32941	
967	0	27536	32708	27935	32658	32813	
968	0	26930	33199	28933	32363	32758	
969	0	26131	33511	28839	32690	32933	
970	0	25330	33299	29191	32545	32845	
971	0	26566	33380	27766	32815	32704	
972	0	27597	33842	22375	33063	32708	
973	0	27508	33896	20667	33442	32711	
974	0	30722	33126	21140	33415	32899	
975	0	35044	32170	23920	33600	32975	
976	0	38480	31687	27960	33136	32812	
977	0	40920	31728	35911	33146	32732	
978	0	40864	32300	38593	32909	32797	
979	0	37876	32696	40115	32356	32973	
980	0	34642	33151	39373	31977	32935	
981	0	33270	33320	35315	32608	32886	
982	0	32199	33249	32939	32957	32743	
983	0	31448	33109	34278	33049	32680	
984	0	31392	33664	35458	32887	32703	
985	0	33120	33415	36387	33045	32822	
986	0	35312	32571	35931	32939	32959	
987	0	36990	32317	34757	32704	32952	
988	0	37353	32109	35447	32639	32979	
989	0	36743	32263	37122	32397	32832	
990	0	35908	32839	36583	32367	32706	
991	0	33592	33486	39805	32459	32864	
992	0	31356	33942	44514	32812	32971	
993	0	31911	33861	42043	33406	32930	
994	0	31529	32996	36947	32869	32939	
995	0	28688	32336	34132	32620	32768	
996	0	24978	31530	27066	32352	32789	
997	0	23960	31002	11078	32402	32986	
998	0	26369	30281	2744	32589	32914	
999	0	30339	29522	5873	32986	32762	
1000	0	35161	30145	21468	33094	32808	
1001	0	39824	31051	35266	33074	32947	
1002	0	42358	32118	42205	32890	32787	
1003	0	40565	32996	44140	32985	32699	
1004	0	37518	33990	44743	32915	32918	
1005	0	35055	34948	42677	32955	32957	
1006	0	31293	34992	37437	33146	32801	
1007	0	27734	34074	32168	32915	32652	
1008	0	26740	33181	34432	32641	32945	
1009	0	26843	32450	39884	32032	32824	
1010	0	27536	31181	42503	31936	32698	
1011	0	30068	30929	39327	32406	32963	
1012	0	33658	31430	33275	32923	32876	
1013	0	35980	32361	23402	32611	32728	
1014	0	37088	32870	16256	32134	32720	
1015	0	38055	33211	20953	32537	32967	
1016	0	37742	33219	30339	32792	32831	
1017	0	36184	32736	34291	32851	32774	
1018	0	34152	32767	34311	32666	32971	
1019	0	32110	32337	36521	32981	32803	
1020	0	29251	32127	38077	33387	33021	
1021	0	27010	32207	39083	33607	32981	
1022	0	25580	32575	40269	33538	32761	
1023	0	25549	33062	40113	33223	32745	
1024	0	27599	33520	37494	32967	32967	
1025	0	31294	33948	27620	32705	32805	
1026	0	34984	33769	22992	32583	32697	
1027	0	36432	33193	24053	33383	32775	
1028	0	36455	32167	27229	33454	32900	
1029	0	35590	31107	28410	32941	32655	
1030	0	36740	30991	30943	32398	32882	
1031	0	37836	31335	34915	32410	32984	
1032	0	38795	31562	38287	32477	32793	
1033	0	38642	32483	38196	32498	32967	
1034	0	37621	32962	35327	32463	32775	
1035	0	35140	32742	30188	32376	32799	
1036	0	32728	32281	29067	32611	32935	
1037	0	30836	31763	28388	32896	32745	
1038	0	30002	31907	29103	32716	33005	
1039	0	30168	32193	35256	33178	32839	
1040	0	28920	33415	38195	33447	32790	
1041	0	28157	34594	35459	33103	33011	
1042	0	27021	35015	35504	32631	32909	
1043	0	25841	34859	33855	32513	32911	
1044	0	26574	33959	30151	32961	32839	
1045	0	28355	33379	29989	32896	32887	
1046	0	31136	33110	32509	32624	33039	
1047	0	34224	33723	34434	31890	32831	
1048	0	33861	34893	32775	32414	32711	
1049	0	33474	35067	32855	32998	32973	
1050	0	33448	34689	34738	32619	32875	
1051	0	34374	33343	33782	31845	32687	
1052	0	32784	31525	29020	32421	32784	
1053	0	32263	29632	27602	32711	32889	
1054	0	34149	29030	32898	32687	32719	
1055	0	38048	29900	29376	32848	32775	
1056	0	41798	31096	24712	33248	32924	
1057	0	42386	32035	32341	33424	32801	
1058	0	38989	32471	41095	33017	32686	
1059	0	34898	32873	41193	32711	32923	
1060	0	31905	33550	37282	32767	32775	
1061	0	28745	34840	33410	33362	32680	
1062	0	27978	35376	30705	33754	32809	
1063	0	29088	35355	24951	32999	32993	
1064	0	31170	33974	24357	32472	32848	
1065	0	34082	32366	29601	32619	32832	
1066	0	36734	31031	35235	33087	32722	
1067	0	36194	30535	35843	32775	32918	
1068	0	33574	30783	35474	32459	32923	
1069	0	31932	31337	33223	32605	32967	
1070	0	30946	32263	32069	32496	32973	
1071	0	29539	33065	34781	31972	32977	
1072	0	29202	32822	36136	31611	32759	
1073	0	29968	32480	40614	31632	32725	
1074	0	31476	32109	42181	31909	32967	
1075	0	32632	32301	39733	32414	32879	
1076	0	31545	32025	34744	33647	32748	
1077	0	29036	31742	32480	34627	32967	
1078	0	26960	31445	30227	34135	32891	
1079	0	28281	31793	26924	33117	32764	
1080	0	30777	32327	24229	32415	32903	
1081	0	32184	32849	22425	32863	32909	
1082	0	32706	33405	26515	32948	32726	
1083	0	32704	33275	27703	32887	32993	
1084	0	32839	33531	31399	33062	32820	
1085	0	33268	33159	33087	32877	32859	
1086	0	32997	32283	32384	32871	32963	
1087	0	33641	31805	33235	32521	32723	
1088	0	34976	31895	36055	32430	32848	
1089	0	37552	32939	38652	32398	32889	
1090	0	39165	34213	38563	32433	32707	
1091	0	39538	35842	36395	32829	32991	
1092	0	38036	36730	37372	32920	32799	
1093	0	34768	36930	38971	33125	32946	
1094	0	31820	36325	37261	32829	32775	
1095	0	30436	34546	32423	32665	32690	
1096	0	31189	32485	30234	32775	32931	
1097	0	31413	30018	28102	33067	32955	
1098	0	31089	27695	24616	32953	32746	
1099	0	31321	26863	26134	32757	32906	
1100	0	31510	27299	31717	32483	32902	
1101	0	31805	28653	37134	32390	32679	
1102	0	32936	29974	40695	32311	32866	
1103	0	33075	31609	43762	32489	32931	
1104	0	33049	32677	44391	32769	32707	
1105	0	32553	33615	38371	32898	32899	
1106	0	32012	34062	34446	32978	32963	
1107	0	31657	33946	24523	32989	32715	
1108	0	31512	33627	23104	33284	32756	
1109	0	30132	33387	22387	33329	32978	
1110	0	28398	33705	21569	33049	32879	
1111	0	28783	34148	23069	32927	32757	
1112	0	30664	34342	22316	32647	32811	
1113	0	32225	34414	17583	32638	32969	
1114	0	34311	34350	22082	32516	32664	
1115	0	36581	34527	31845	32263	32774	
1116	0	39248	34309	38079	32257	32872	
1117	0	41612	33915	41059	32591	32717	
1118	0	43113	33040	42294	32707	32967	
1119	0	41077	32160	40627	32774	32909	
1120	0	35825	31723	36325	32766	32669	
1121	0	30286	31636	38863	32943	32768	
1122	0	26768	31720	41853	33317	32807	
1123	0	25288	31687	38397	33026	32959	
1124	0	25105	31317	33128	32602	32965	
1125	0	27581	31170	29525	32293	32767	
1126	0	30840	31924	33528	32356	32775	
1127	0	33829	32917	39550	32821	32928	
1128	0	36628	33373	41262	32978	32666	
1129	0	38376	33410	38213	32928	32951	
1130	0	38217	33021	28090	32877	32820	
1131	0	35467	32598	21307	32740	32856	
1132	0	32829	32445	19814	32711	32912	
1133	0	31348	32199	26611	32644	32700	
1134	0	30488	32425	33571	32753	32988	
1135	0	30727	32699	35015	33305	32977	
1136	0	31037	32519	32899	33355	32946	
1137	0	30476	32507	35828	33106	32677	
1138	0	29589	32626	36395	33299	32967	
1139	0	29907	32491	34573	32846	32887	
1140	0	31255	32762	33329	32481	32775	
1141	0	31938	32819	34960	32515	33031	
1142	0	32627	32955	37949	32540	32812	
1143	0	33068	32829	37317	32755	32729	
1144	0	31520	32135	33025	33101	32910	
1145	0	30504	32335	29533	32823	32775	
1146	0	30298	32775	31303	32517	32727	
1147	0	29573	33686	31890	32557	32731	
1148	0	30036	33795	32503	32581	32730	
1149	0	30892	34029	35725	32581	32889	
1150	0	32532	33828	38561	32751	32985	
1151	0	33980	33782	34488	32809	32767	
1152	0	35186	33664	34299	33024	32726	
1153	0	37153	32927	32614	33039	32711	
1154	0	37762	31936	29836	33085	32830	
1155	0	35972	30994	26190	33376	32905	
1156	0	32596	30462	20312	33053	33023	
1157	0	30143	30375	19933	32775	32727	
1158	0	30823	30678	23037	32855	32675	
1159	0	33572	31148	28148	32450	32902	
1160	0	36500	31745	33936	32219	32908	
1161	0	36947	32583	37561	32031	33011	
1162	0	36285	33384	37229	32937	32867	
1163	0	35832	33564	35437	33317	32699	
1164	0	35329	33631	35682	32893	32854	
1165	0	33817	33666	37183	32599	33004	
1166	0	32583	33479	38160	32737	32873	
1167	0	32726	33699	39162	32571	32775	
1168	0	31849	34047	38129	32467	32839	
1169	0	30790	34178	34291	32431	32981	
1170	0	30349	34055	34870	32666	32936	
1171	0	30949	33036	37748	32728	32759	
1172	0	30655	32583	36960	32819	32815	
1173	0	30818	32115	32789	32766	32871	
1174	0	31812	31619	26983	32775	32891	
1175	0	32559	31355	23290	32993	32967	
1176	0	32517	31522	23303	33154	32771	
1177	0	32532	32079	28773	32992	32768	
1178	0	32562	32989	30793	33050	32993	
1179	0	32069	33761	31639	32923	32884	
1180	0	32485	34016	33879	32886	32704	
1181	0	33383	33245	35517	32863	32957	
1182	0	32856	31881	37511	32832	32795	
1183	0	32021	31006	41029	32632	32855	
1184	0	30864	30806	45480	32433	32861	
1185	0	29947	31170	44099	32391	32626	
1186	0	29301	31599	33144	32592	32938	
1187	0	29880	31852	20384	32772	32762	
1188	0	31769	32537	13912	32833	32724	
1189	0	35866	32637	18201	32421	32898	
1190	0	38688	32487	27295	32718	32741	
1191	0	38464	32334	34731	32628	32697	
1192	0	37541	32514	39431	32722	32915	
1193	0	36760	32929	41266	32592	32713	
1194	0	34833	33495	39710	32733	32791	
1195	0	32436	33630	36983	32980	32999	
1196	0	30056	34078	31349	33204	32986	
1197	0	28402	34034	27595	33120	32775	
1198	0	27917	33894	25717	33344	32892	
1199	0	28712	33383	26823	33505	32999	
1200	0	29924	32487	28216	33448	33091	
1201	0	32256	32548	37226	32580	33026	
1202	0	35564	32784	44873	32112	32887	
1203	0	37792	32937	46051	32362	32775	
1204	0	37044	32916	32775	32765	32939	
1205	0	35032	32882	18219	33117	32851	
1206	0	33097	33415	18028	32984	32601	
1207	0	31344	33331	32998	32416	32708	
1208	0	29202	33346	43705	31994	32587	
1209	0	29592	32839	49051	31497	32457	
1210	0	30544	31992	51079	31865	32602	
1211	0	33840	31229	43693	32280	32819	
1212	0	36074	30906	26667	33538	33076	
1213	0	37040	31361	12992	33928	32852	
1214	0	37054	32289	13523	33941	33043	
1215	0	35766	32755	15301	33280	32965	
1216	0	32833	32804	20957	32850	32797	
1217	0	31507	32504	26106	32822	32902	
1218	0	31736	32619	31751	33036	33077	
1219	0	33098	32348	35165	33003	32812	
1220	0	33544	31866	36499	32857	32879	
1221	0	33287	31652	38669	32673	32849	
1222	0	30962	31810	39495	32600	32632	
1223	0	29347	32277	39977	32599	32868	
1224	0	28429	32611	39563	32667	32855	
1225	0	28385	33430	37191	32611	32800	
1226	0	29618	33979	38567	32743	32711	
1227	0	30800	34023	41031	32605	33025	
1228	0	31759	33735	41810	32563	32850	
1229	0	31256	32883	39693	32597	32755	
1230	0	30444	32447	34714	32425	32930	
1231	0	32024	32662	26418	32304	32854	
1232	0	33336	33031	22238	32583	32813	
1233	0	35094	32775	25355	33117	32992	
1234	0	36883	32509	29774	33272	32908	
1235	0	38149	32411	34311	33071	32827	
1236	0	38347	32677	37475	32958	32940	
1237	0	38169	32897	35681	32997	32869	
1238	0	36699	33044	31301	32855	33050	
1239	0	34147	33317	29149	32891	32859	
1240	0	32220	33957	29762	32839	32995	
1241	0	31684	33987	31695	32810	32699	
1242	0	31369	33715	32979	32950	32861	
1243	0	31560	33094	33662	32801	32497	
1244	0	30548	31930	34407	32775	32461	
1245	0	28010	31047	36795	32579	32912	
1246	0	25844	30925	38648	32614	32725	
1247	0	27138	31273	37494	32589	32951	
1248	0	29350	32183	30546	32745	32888	
1249	0	30872	32595	25308	32628	32711	
1250	0	31765	33337	25917	32595	32931	
1251	0	32482	33490	30924	32289	32842	
1252	0	31326	32615	36287	32775	32742	
1253	0	30788	32192	35811	33036	32931	
1254	0	32107	31595	35999	32821	32741	
1255	0	34332	31588	31667	32911	32943	
1256	0	37797	32360	25437	32959	32868	
1257	0	41348	33885	25970	32807	32829	
1258	0	40736	35069	27862	32728	32998	
1259	0	38431	35595	28547	32765	32789	
1260	0	36868	35308	32139	32678	32949	
1261	0	36953	34650	40762	32505	33006	
1262	0	35064	33383	43359	32486	32923	
1263	0	30104	32538	40605	32906	32723	
1264	0	26240	32257	35992	32643	32809	
1265	0	25350	31702	32045	32471	33009	
1266	0	27020	31175	29259	32418	32744	
1267	0	28103	29850	28905	32230	32873	
1268	0	29230	30214	28111	32003	32954	
1269	0	31348	31407	27386	32928	32754	
1270	0	36410	32742	23262	35139	32735	
1271	0	39687	32966	23021	35399	32720	
1272	0	41184	32301	28696	34282	32882	
1273	0	41988	30347	33581	33266	32949	
1274	0	39751	28810	39307	32352	32697	
1275	0	35994	28306	43449	32608	32846	
1276	0	31166	29126	43709	32538	32876	
1277	0	27546	30727	41323	32619	32738	
1278	0	26237	31673	38034	32229	32967	
1279	0	27281	33138	28624	32300	32855	
1280	0	28514	34507	19627	32422	32689	
1281	0	30202	35481	20927	32438	32797	
1282	0	32220	35675	28807	32226	32954	
1283	0	33700	35479	34887	32327	32899	
1284	0	33841	34695	34203	32391	32699	
1285	0	33751	33453	35363	32577	32871	
1286	0	32454	32903	35023	32768	33007	
1287	0	30213	32631	30895	32525	32775	
1288	0	29511	33087	31519	32545	32890	
1289	0	29968	33111	34603	32583	32849	
1290	0	29562	33439	37710	32678	32761	
1291	0	27930	33351	38493	32775	32997	
1292	0	27237	33334	38667	32819	32899	
1293	0	30175	33357	39445	32791	32730	
1294	0	35776	32831	39888	32967	32992	
1295	0	40924	32321	38735	33113	32755	
1296	0	42034	32801	34936	32910	33057	
1297	0	39704	32848	30540	32809	32827	
1298	0	35682	32951	28863	32775	32871	
1299	0	32970	33042	27942	32614	32927	
1300	0	32606	32581	26260	32867	32813	
1301	0	33954	32256	27154	32729	32839	
1302	0	35470	32630	30190	32728	32598	
1303	0	34876	32772	31929	32198	32749	
1304	0	31421	33075	32043	32076	32601	
1305	0	28483	33694	31175	32762	32833	
1306	0	28616	34134	33588	33102	32816	
1307	0	30000	34353	35959	33261	32818	
1308	0	31418	34840	32470	33159	33245	
1309	0	31428	34203	28495	33064	32993	
1310	0	29344	33123	28951	33515	33067	
1311	0	27020	31338	34112	32982	32920	
1312	0	27107	29659	36219	32765	33099	
1313	0	28064	28371	35310	32835	32766	
1314	0	30128	27935	32076	32848	32619	
1315	0	33755	29070	30650	32734	32866	
1316	0	37402	31213	32581	32357	32850	
1317	0	39678	33095	28272	32382	32866	
1318	0	41001	34253	25321	33342	33109	
1319	0	41133	34754	27936	33621	32711	
1320	0	40924	35000	31842	33097	32759	
1321	0	38983	34975	34226	31936	32195	
1322	0	34610	34511	36076	31747	32350	
1323	0	30928	34098	37200	32563	32454	
1324	0	29348	33089	39717	33310	32608	
1325	0	29286	32275	38585	33266	32967	
1326	0	30262	31019	33893	33068	32993	
1327	0	31363	30175	31811	32989	32882	
1328	0	31006	30338	32511	32672	33142	
1329	0	29689	31423	33615	32975	32921	
1330	0	29582	32775	32382	32759	32959	
1331	0	30306	33583	29033	32608	33008	
1332	0	32906	33863	31588	32528	32754	
1333	0	34712	34013	37317	32536	32733	
1334	0	34416	34311	38081	32736	32982	
1335	0	32408	34306	40101	32723	32788	
1336	0	28572	34038	40535	32687	32800	
1337	0	25698	33388	31485	32746	32998	
1338	0	25867	32583	22984	32839	32881	
1339	0	29183	32007	18395	32877	32934	
1340	0	32912	32091	24462	32790	32987	
1341	0	35160	31943	30402	32729	32807	
1342	0	35441	31943	36612	32939	32995	
1343	0	35798	31285	38767	33043	32760	
1344	0	36795	30603	36591	32928	32839	
1345	0	37941	30238	36963	32727	33023	
1346	0	39418	31411	37165	32529	32638	
1347	0	39196	32279	35335	32501	32926	
1348	0	38104	32527	31885	32481	32882	
1349	0	35837	33127	31699	32989	32757	
1350	0	33124	33974	28666	32916	32955	
1351	0	31106	34589	25809	32717	32793	
1352	0	29562	35069	21383	32869	32698	
1353	0	29152	35015	20188	32919	32952	
1354	0	28642	34302	24732	33095	32896	
1355	0	29470	33711	30034	32737	32741	
1356	0	31916	32285	35648	32570	32940	
1357	0	33892	31467	38956	32583	32966	
1358	0	34873	31455	40985	33015	32715	
1359	0	33816	31904	40921	33303	32845	
1360	0	32308	32039	39899	33460	32943	
1361	0	29697	32179	36797	33326	32751	
1362	0	28336	31991	32546	33001	32769	
1363	0	27938	32287	32404	32071	32933	
1364	0	27058	32363	33383	31709	32895	
1365	0	26162	32533	35955	32178	32871	
1366	0	27032	32608	38788	32452	32745	
1367	0	28615	32168	41028	33187	32914	
1368	0	29522	32102	43569	33103	32914	
1369	0	29997	31805	45997	32353	32751	
1370	0	32750	32070	43088	32194	32890	
1371	0	36441	32424	31948	32772	32882	
1372	0	40920	33283	19460	32872	32884	
1373	0	44656	34420	11142	33088	32737	
1374	0	44499	35017	11431	33519	33019	
1375	0	43903	35256	15888	33302	32947	
1376	0	42816	34334	23705	33448	32815	
1377	0	39584	33008	28991	32728	32923	
1378	0	35816	31714	30555	32395	32785	
1379	0	31886	30943	30706	32181	32705	
1380	0	28887	31074	31363	32199	32921	
1381	0	28262	31351	32924	32663	32683	
1382	0	29282	31491	35646	33015	32868	
1383	0	30509	31396	39717	33561	32682	
1384	0	30116	31139	42200	33383	32672	
1385	0	30354	31330	42615	33138	32850	
1386	0	30182	32197	40711	32829	32852	
1387	0	31092	33300	37311	32322	32674	
1388	0	33140	34415	33791	32464	32903	
1389	0	33670	35559	34135	32635	32749	
1390	0	32895	36455	35049	32662	33073	
1391	0	31168	36659	34456	32398	32775	
1392	0	29592	35760	35723	32469	33050	
1393	0	27657	33808	37713	32698	32728	
1394	0	25896	31459	39534	33142	32981	
1395	0	25496	29275	36163	33163	32831	
1396	0	26492	28574	33531	32926	32711	
1397	0	28865	28859	31398	32521	32987	
1398	0	32322	29914	24422	32688	32741	
1399	0	35696	31013	19526	32688	32719	
1400	0	38249	32169	22343	32658	32994	
1401	0	39576	33330	29986	32774	32816	
1402	0	39373	34258	31503	32450	32673	
1403	0	39120	34311	29730	32857	32857	
1404	0	39222	34149	26746	32856	32912	
1405	0	39056	33829	29846	32834	32690	
1406	0	38228	33510	34887	32748	33015	
1407	0	35814	32894	36949	32582	32849	
1408	0	33620	32310	37117	32860	32710	
1409	0	30853	31585	36260	33010	32876	
1410	0	29478	31311	33259	32960	32925	
1411	0	27655	32103	32165	32592	32716	
1412	0	25034	32653	33025	32195	32868	
1413	0	24140	33311	35623	32442	32898	
1414	0	24090	33625	39078	32557	32671	
1415	0	24025	34016	40338	32382	32920	
1416	0	25524	33953	41837	32429	32949	
1417	0	28679	34235	43738	32642	32664	
1418	0	33088	34566	40085	33307	32839	
1419	0	36883	34400	31694	33687	32967	
1420	0	40253	33863	28754	34166	32740	
1421	0	41880	32519	29865	33407	32896	
1422	0	41208	31047	22969	32798	32929	
1423	0	39040	29894	16419	33156	32824	
1424	0	36347	29583	15239	33043	32932	
1425	0	34632	30661	17546	32947	32804	
1426	0	32966	32003	26727	32748	32952	
1427	0	30591	32699	32037	32292	32687	
1428	0	29473	32453	33063	32135	32943	
1429	0	28729	32230	33538	32253	32664	
1430	0	30709	32047	36941	32483	32884	
1431	0	32855	32469	38964	32647	32651	
1432	0	33799	32899	38907	32581	32917	
1433	0	35090	33384	39927	32518	32747	
1434	0	35760	33464	39394	32727	32807	
1435	0	36142	33477	34330	32698	32848	
1436	0	35600	32719	29741	32606	32891	
1437	0	34424	32539	31598	32493	32846	
1438	0	32057	32720	34990	32639	32936	
1439	0	29188	33723	37696	33028	32680	
1440	0	26212	34946	36975	33266	32839	
1441	0	25036	35363	31451	33367	32966	
1442	0	25701	34348	35523	33420	32928	
1443	0	28867	32614	38215	33663	32666	
1444	0	32809	30482	36395	33415	32952	
1445	0	36678	28906	37518	32475	32813	
1446	0	38973	28393	38125	32211	32903	
1447	0	38746	28967	33269	32412	33018	
1448	0	35775	30402	26629	32664	32824	
1449	0	32381	31954	32360	32898	32908	
1450	0	30741	33176	42914	32500	32967	
1451	0	31988	34066	41631	32390	32736	
1452	0	34619	34966	27120	32978	32926	
1453	0	37998	36140	9568	33216	32833	
1454	0	40558	36696	3459	32896	32818	
1455	0	41746	36346	11815	32735	32664	
1456	0	40043	34872	20939	32948	32758	
1457	0	36532	32722	28893	32847	32632	
1458	0	32682	30727	35143	32998	32937	
1459	0	29786	29486	37133	32833	32685	
1460	0	27460	29258	40550	32498	32966	
1461	0	26184	30709	43651	32465	32713	
1462	0	25738	32327	44002	32583	32984	
1463	0	24970	33911	42770	32450	32759	
1464	0	23842	34388	42994	32677	33069	
1465	0	23401	32882	42703	33093	32959	
1466	0	24370	30727	41402	33193	32787	
1467	0	27389	29018	37558	33043	32972	
1468	0	31360	29103	34143	32933	32687	
1469	0	34255	30043	31321	32889	32905	
1470	0	37011	31295	28663	32728	32656	
1471	0	39465	32745	29514	32839	32875	
1472	0	41280	33583	32663	32169	32711	
1473	0	40580	33983	32987	32431	32918	
1474	0	38727	34189	27345	32936	32706	
1475	0	38499	33975	25563	32953	32715	
1476	0	37069	33671	26935	32967	33005	
1477	0	35249	33564	29625	32795	33001	
1478	0	35160	33371	30262	32304	32935	
1479	0	34592	33063	30215	32280	32753	
1480	0	33208	32871	32106	32442	33091	
1481	0	31148	32857	34662	32509	32934	
1482	0	28101	33043	37542	32940	32755	
1483	0	26514	33621	41245	32873	33057	
1484	0	25286	34263	41094	32625	32930	
1485	0	24014	34789	37823	32789	32629	
1486	0	25148	34872	35757	32720	32893	
1487	0	28251	34588	32400	32912	32693	
1488	0	31216	33888	27637	32909	32628	
1489	0	33460	33091	31969	33001	32701	
1490	0	36374	32362	37855	32893	32769	
1491	0	38330	32041	35727	32741	32767	
1492	0	36546	31448	28975	32744	32976	
1493	0	34144	30912	22614	33124	32891	
1494	0	32637	30651	22697	33336	32998	
1495	0	30968	30651	24821	32981	32885	
1496	0	29968	31020	25365	33000	32819	
1497	0	31276	31598	32088	32986	33133	
1498	0	33195	31711	34759	32803	32839	
1499	0	34931	32422	30171	32793	32829	
1500	0	36426	33274	24736	32681	33004	
1501	0	37319	34525	24337	32628	32964	
1502	0	36176	35103	26529	32693	32647	
1503	0	32800	35207	31263	32833	32912	
1504	0	31338	34303	36871	32869	32762	
1505	0	32649	33502	41768	32736	32768	
1506	0	35219	31802	44254	32190	32800	
1507	0	36732	30791	44570	31870	32577	
1508	0	37331	30622	42183	32381	32799	
1509	0	36454	31184	39985	32806	32760	
1510	0	34763	31655	41854	33130	32981	
1511	0	31746	32370	45764	32671	32984	
1512	0	28601	33152	40715	32118	32940	
1513	0	26084	34088	29506	32250	33120	
1514	0	26518	35000	21605	32659	33067	
1515	0	28731	35335	19231	32923	32967	
1516	0	31864	35455	23242	33005	32879	
1517	0	32853	34421	28667	32767	32831	
1518	0	33326	32858	35449	32934	33001	
1519	0	33462	31779	36937	32989	32722	
1520	0	34208	30275	34737	33085	32801	
1521	0	34276	29368	31163	33111	32391	
1522	0	34424	29039	30413	33238	32587	
1523	0	33287	29099	31095	33138	32818	
1524	0	31672	29949	26419	33188	32647	
1525	0	30474	31155	28393	33057	32870	
1526	0	30150	32473	32219	32728	32971	
1527	0	30534	33286	35670	32825	32871	
1528	0	32510	33607	37866	32748	33184	
1529	0	33799	33951	41069	32632	32855	
1530	0	33676	34499	39793	32683	32967	
1531	0	32420	34625	36518	32666	33205	
1532	0	32957	34339	29953	32733	33200	
1533	0	35656	33471	26046	32898	33030	
1534	0	37618	32511	20626	33046	32628	
1535	0	36847	32261	22267	32679	32770	
1536	0	34896	32061	29993	32525	32478	
1537	0	31780	32608	34290	32301	32331	
1538	0	29154	33538	31853	32541	32435	
1539	0	28041	33783	30072	32696	32683	
1540	0	28448	33927	33336	32655	33013	
1541	0	29106	33643	35061	32609	32989	
1542	0	29498	33193	38893	32667	32909	
1543	0	30042	32877	43745	32868	32903	
1544	0	30160	32303	44891	33085	32895	
1545	0	31164	31584	43838	32999	32832	
1546	0	34554	31239	40637	32944	32746	
1547	0	38227	31369	30913	32968	32856	
1548	0	39562	31793	19684	32574	32893	
1549	0	39060	32517	14426	32363	32768	
1550	0	36989	32810	15798	32461	32914	
1551	0	35284	32333	21118	32950	33083	
1552	0	35993	32803	30418	32672	33017	
1553	0	37548	33156	37755	32594	32920	
1554	0	38208	33379	39802	32466	32877	
1555	0	38600	33680	40849	32492	33014	
1556	0	37823	33927	39623	32959	32860	
1557	0	35832	34019	34258	33474	32845	
1558	0	33152	33759	30523	33371	32523	
1559	0	30956	33799	31289	33306	32466	
1560	0	28961	33386	33488	32711	32707	
1561	0	26261	32704	36616	32372	32910	
1562	0	24355	32178	39899	32325	32857	
1563	0	24837	31577	43600	32992	32740	
1564	0	23968	29760	46052	33654	32812	
1565	0	23056	28491	45215	34111	32976	
1566	0	23946	27826	34485	33714	32922	
1567	0	25970	28736	22952	32386	32786	
1568	0	28677	30791	19295	32024	32869	
1569	0	31848	32754	21070	32422	33005	
1570	0	33474	34413	22067	32416	32841	
1571	0	33540	35369	24279	31825	32748	
1572	0	36394	36041	28051	32327	32991	
1573	0	40600	36359	32411	32624	32759	
1574	0	44201	35936	34415	32827	32775	
1575	0	45573	34663	35538	32736	32832	
1576	0	44430	33517	34923	32685	32741	
1577	0	41608	33031	33855	33069	32731	
1578	0	37229	32871	34128	33203	33007	
1579	0	31908	32149	31275	33001	32980	
1580	0	29205	31257	28742	32738	32835	
1581	0	28512	30313	28754	32429	32711	
1582	0	30012	29791	30107	32306	32789	
1583	0	31853	30279	34478	32509	33009	
1584	0	33012	31751	39093	32623	32829	
1585	0	31740	33391	41568	32932	32860	
1586	0	29241	34435	42322	33080	33051	
1587	0	27390	34823	42987	32349	32941	
1588	0	25949	35271	39421	32317	32737	
1589	0	24241	34533	34693	32931	32775	
1590	0	23653	33022	30597	32903	32837	
1591	0	24384	31924	31197	32848	32582	
1592	0	26450	31131	35746	32725	32912	
1593	0	30309	31235	37005	33080	32835	
1594	0	34576	32256	32628	32940	32736	
1595	0	39340	33512	26994	33000	32978	
1596	0	43309	34311	26786	33234	33017	
1597	0	43155	34153	30411	33095	32869	
1598	0	39328	32708	25621	32909	32624	
1599	0	34626	30910	19403	32771	33004	
1600	0	31958	30215	17412	32932	32999	
1601	0	30808	30087	19555	32898	32775	
1602	0	31862	30476	30316	33024	32869	
1603	0	32380	30153	36138	32774	32931	
1604	0	32791	30302	32408	33055	32705	
1605	0	34550	30859	29639	33116	32999	
1606	0	35929	31727	34627	32990	32625	
1607	0	35994	32592	41295	32500	32922	
1608	0	35372	33349	44095	31879	32976	
1609	0	35194	34979	41960	32191	32915	
1610	0	36395	35896	41573	32666	32793	
1611	0	37140	36383	39695	32756	32863	
1612	0	37017	36013	32188	32707	32741	
1613	0	35108	35335	22945	32681	32583	
1614	0	32738	33845	25222	32450	32827	
1615	0	31040	32502	37902	32902	32992	
1616	0	31293	30581	46117	33232	32809	
1617	0	30690	29031	41979	33234	33021	
1618	0	28544	28946	40864	32967	32970	
1619	0	26786	30175	37136	32716	32879	
1620	0	26460	32067	29899	32836	32741	
1621	0	26166	33480	22560	33274	32850	
1622	0	27270	33943	18511	33471	32967	
1623	0	29352	33320	23265	32903	32807	
1624	0	31340	33065	27436	32341	32669	
1625	0	34073	34064	28253	32166	32745	
1626	0	34147	35031	27109	32647	32850	
1627	0	33789	35156	34092	32616	32940	
1628	0	33564	34029	38815	33016	32818	
1629	0	32713	32233	38032	33207	32915	
1630	0	32735	31199	38915	32473	33019	
1631	0	32688	30769	38023	32432	32857	
1632	0	34112	31629	34435	32900	32607	
1633	0	36329	32596	29072	32671	32793	
1634	0	36520	33211	26328	32699	32963	
1635	0	36220	33229	27169	32909	32825	
1636	0	35363	33355	31485	33068	33013	
1637	0	33946	33109	36069	32972	32879	
1638	0	32492	32761	36973	32890	32699	
1639	0	31687	32131	36999	32753	32959	
1640	0	30593	31981	37859	33011	32722	
1641	0	29284	32367	35590	33044	32869	
1642	0	30364	32757	32527	32415	32839	
1643	0	31181	33555	34163	32085	32775	
1644	0	31916	34468	39026	32044	32835	
1645	0	32650	34873	42523	32461	32699	
1646	0	32530	34503	41951	32711	33018	
1647	0	30598	33607	39593	33142	32730	
1648	0	27333	32288	29450	34054	32837	
1649	0	26186	31010	13108	33376	32981	
1650	0	26860	30656	13189	32749	32801	
1651	0	27424	31801	18818	32327	32863	
1652	0	28883	33208	29233	32610	32953	
1653	0	31948	33972	34279	32253	32891	
1654	0	36056	34370	33778	31927	32914	
1655	0	38314	34145	33381	32683	32699	
1656	0	40200	33474	32993	32839	32888	
1657	0	41666	32171	32391	32636	32904	
1658	0	42402	31229	31261	32391	32701	
1659	0	41991	30822	31492	32002	32944	
1660	0	40618	29942	31995	33145	32875	
1661	0	38566	29874	32738	33530	32703	
1662	0	36910	30101	34106	33639	32909	
1663	0	35647	30939	32002	33448	33009	
1664	0	34422	32419	31439	32612	32963	
1665	0	34041	33678	33810	32679	32733	
1666	0	33949	33167	39020	32988	32736	
1667	0	32762	31889	44069	33281	32903	
1668	0	30772	31220	46215	33103	32807	
1669	0	28032	31265	43467	33075	32703	
1670	0	25584	31261	36605	32879	32792	
1671	0	23445	31158	28543	32467	33008	
1672	0	21328	32015	25741	32336	32898	
1673	0	20921	33686	30458	32231	32700	
1674	0	22986	35384	35074	31909	32785	
1675	0	27475	36412	37383	32098	33042	
1676	0	34443	36658	39425	32576	32953	
1677	0	40482	35963	40640	32795	32761	
1678	0	43916	35080	29426	32880	32800	
1679	0	43608	33702	18368	33270	32984	
1680	0	41024	31699	17477	33678	32848	
1681	0	36767	30184	19551	33546	32807	
1682	0	32203	29112	25198	33266	32818	
1683	0	29412	28676	34610	32907	32940	
1684	0	29261	29842	40660	32518	33032	
1685	0	29274	31367	44711	32315	32711	
1686	0	28674	32403	44979	32419	32775	
1687	0	28540	32681	36644	32484	32775	
1688	0	28889	33737	24656	32560	32747	
1689	0	28586	35679	16042	32428	32960	
1690	0	28232	37097	12128	32704	33117	
1691	0	29878	37895	19683	32456	32925	
1692	0	34096	37325	30628	32742	32722	
1693	0	38546	35872	36196	32624	32851	
1694	0	41263	33184	39558	32728	32650	
1695	0	41991	30571	40824	32809	32437	
1696	0	40338	28935	42402	32842	32489	
1697	0	35834	28897	43491	33042	32725	
1698	0	30123	29319	43341	32992	32617	
1699	0	26930	29928	37604	32687	33055	
1700	0	26154	30368	35101	32805	32994	
1701	0	26401	30871	38188	33163	32901	
1702	0	28867	31843	38220	33218	33021	
1703	0	31464	33323	33477	33100	32775	
1704	0	34823	34051	30487	32845	32978	
1705	0	37740	34715	27880	32436	32895	
1706	0	37760	35399	19239	32277	32600	
1707	0	35486	35792	19969	32129	32920	
1708	0	33664	35843	27565	32134	32787	
1709	0	30842	35581	33757	32696	33001	
1710	0	28324	34479	37860	32888	33009	
1711	0	27443	32921	39442	33142	32860	
1712	0	28388	31030	44080	33103	33043	
1713	0	30620	29895	45878	33083	33031	
1714	0	34784	29343	41615	33134	32681	
1715	0	36836	29632	28061	33200	32868	
1716	0	36715	29841	22581	33017	32954	
1717	0	35880	29973	23579	32775	32835	
1718	0	35656	31032	22605	32877	32853	
1719	0	34340	32364	18550	32957	32839	
1720	0	31909	33267	22963	32484	32709	
1721	0	33008	34080	29883	31831	33003	
1722	0	35832	33847	36427	32087	32990	
1723	0	37361	33463	37403	32825	32690	
1724	0	37860	32850	35451	33138	32685	
1725	0	37552	32083	37469	33267	32918	
1726	0	35912	32386	38175	33315	32759	
1727	0	33344	32797	39341	33194	32711	
1728	0	30340	33977	41682	32673	32945	
1729	0	28446	35995	37123	32520	32888	
1730	0	26284	37793	34173	32459	32744	
1731	0	23812	37827	34439	32612	32935	
1732	0	23708	35981	30727	32690	32966	
1733	0	24228	33621	26692	32893	32720	
1734	0	26893	30160	25529	33216	32950	
1735	0	31009	27516	28719	33243	32741	
1736	0	34298	26163	28704	33277	32909	
1737	0	35217	26753	30224	33328	32905	
1738	0	35088	28344	34247	32922	32746	
1739	0	35207	30757	37949	32518	32977	
1740	0	36071	32868	39213	32341	32932	
1741	0	36242	33751	36195	32481	32717	
1742	0	37179	33408	32079	32611	32921	
1743	0	38230	32273	28999	32904	32872	
1744	0	37658	32366	26706	32579	32775	
1745	0	35628	33344	29744	31977	33014	
1746	0	34073	34983	35051	31469	32925	
1747	0	32064	36795	38891	32174	32757	
1748	0	30552	37191	36787	33018	32753	
1749	0	30650	36379	30270	33034	32932	
1750	0	31536	34624	28022	32991	32988	
1751	0	33064	32277	31680	33774	32877	
1752	0	33544	31023	35223	33582	32696	
1753	0	33435	30771	35711	33403	32919	
1754	0	33396	31442	31631	32693	32809	
1755	0	32880	32541	23800	32007	32762	
1756	0	32578	33019	19651	32219	32839	
1757	0	31965	33518	28195	32912	33001	
1758	0	31394	33195	38471	33246	32955	
1759	0	31137	32109	46128	33314	32932	
1760	0	29363	30776	48534	32470	32832	
1761	0	28178	29955	45255	32116	32831	
1762	0	28536	29842	37920	32492	32744	
1763	0	29160	30074	26348	32365	32981	
1764	0	30361	31227	26113	32039	32891	
1765	0	31405	32839	27636	32095	32711	
1766	0	32622	34035	26700	32402	32735	
1767	0	33852	35359	28337	32450	32898	
1768	0	35318	36819	31952	32861	32931	
1769	0	35864	37557	34525	33095	32898	
1770	0	34597	37511	35015	33103	32903	
1771	0	33384	36284	34929	33167	32707	
1772	0	31985	33484	28739	33371	32898	
1773	0	30370	30053	22303	33316	32827	
1774	0	30428	27622	25798	33242	32851	
1775	0	30563	26957	32738	33169	32861	
1776	0	32680	28182	35824	33065	32775	
1777	0	35379	30237	35405	33153	32662	
1778	0	39750	31485	36282	32976	32636	
1779	0	43287	31587	39529	32890	32861	
1780	0	44374	31451	39574	32998	32827	
1781	0	41802	32023	38761	33063	33067	
1782	0	36687	32749	38944	32744	33051	
1783	0	33129	32869	42880	32448	32960	
1784	0	30306	33635	43430	32343	32762	
1785	0	27661	33863	40297	32409	32787	
1786	0	24614	34026	36386	32540	33064	
1787	0	20578	33068	25464	32634	32937	
1788	0	18152	32764	15048	32621	32809	
1789	0	19254	32922	10569	32592	32711	
1790	0	23948	34151	18227	32602	32749	
1791	0	30306	35996	28850	32589	32758	
1792	0	37133	37273	28080	32880	32626	
1793	0	42858	36086	27476	32941	32635	
1794	0	46546	34615	24217	33050	32861	
1795	0	46409	32347	22506	32711	32997	
1796	0	44635	30106	25870	32980	32767	
1797	0	43054	28624	32279	33106	32640	
1798	0	41274	28487	38070	33126	32967	
1799	0	38636	28862	41603	33008	32967	
1800	0	35427	30200	44701	33427	32802	
1801	0	33405	31559	44679	33257	32984	
1802	0	30752	32509	44058	33044	32793	
1803	0	28496	33056	43015	32686	32755	
1804	0	26593	34747	41833	32237	32964	
1805	0	23689	36176	39128	31963	33090	
1806	0	23232	36448	35611	31794	32999	
1807	0	24963	35501	30023	31815	32954	
1808	0	27138	34632	34680	32704	32850	
1809	0	28366	34280	39969	32858	32619	
1810	0	30399	33815	37609	32589	32709	
1811	0	29785	33968	28491	32992	32966	
1812	0	28658	34710	17989	33061	32836	
1813	0	26689	34886	20786	33254	32704	
1814	0	27032	34982	27928	33162	32809	
1815	0	29805	34480	37400	32981	32992	
1816	0	32692	32621	43010	33581	32805	
1817	0	34544	29981	43736	34246	32701	
1818	0	34928	26178	35824	33646	32680	
1819	0	35995	23778	21552	32829	32774	
1820	0	37514	24464	8803	32988	32775	
1821	0	38260	27453	11998	32088	32763	
1822	0	38369	30541	21739	31574	32788	
1823	0	37728	33772	32362	31569	32756	
1824	0	36692	35666	39235	32394	32844	
1825	0	35629	36280	42333	33186	32967	
1826	0	35857	36303	42983	33508	32915	
1827	0	36306	35495	40747	33488	32822	
1828	0	35257	33918	37949	33125	32789	
1829	0	32520	33724	40673	32156	32929	
1830	0	29116	33465	40472	32011	32958	
1831	0	27117	32877	37895	32105	32774	
1832	0	24342	32813	35037	32669	33035	
1833	0	22918	32768	23744	33153	32872	
1834	0	22744	33287	15075	32808	32752	
1835	0	25637	32579	19328	33026	32818	
1836	0	31032	32080	29262	32094	32961	
1837	0	36274	31414	34469	31797	32843	
1838	0	40640	31559	37237	32131	32683	
1839	0	42631	31961	37307	33176	32876	
1840	0	42934	32571	35509	33462	32983	
1841	0	41793	32825	36346	33271	32945	
1842	0	40465	32923	36452	32688	32910	
1843	0	39280	33410	38791	32655	32720	
1844	0	36810	33646	37823	32949	32891	
1845	0	34941	33087	37715	33164	32914	
1846	0	32390	32699	36564	32855	32947	
1847	0	29544	32151	33241	32671	32967	
1848	0	26510	31667	31631	32203	32923	
1849	0	24770	31653	31349	31907	32941	
1850	0	26596	31683	32348	32015	33033	
1851	0	28616	31936	26528	32223	32839	
1852	0	31477	32646	17235	33906	32837	
1853	0	34446	32707	17246	33814	32832	
1854	0	35272	32395	25296	33662	32658	
1855	0	34606	32263	25747	33827	32804	
1856	0	33051	31871	25929	33529	32807	
1857	0	32664	32258	32006	33506	32722	
1858	0	32720	33304	38678	33278	32775	
1859	0	32528	34540	42115	32691	32718	
1860	0	32115	34514	43215	32751	32608	
1861	0	31602	34405	43149	32228	32833	
1862	0	30249	34005	44330	32063	32911	
1863	0	28632	33320	44495	31921	32775	
1864	0	27537	33310	42307	32148	32835	
1865	0	28219	33879	37959	32479	32845	
1866	0	28480	34216	30934	32798	33007	
1867	0	28624	34150	24347	32706	32941	
1868	0	29722	32659	24444	33159	32787	
1869	0	31521	30905	25879	33168	32918	
1870	0	34699	29355	27820	33009	32890	
1871	0	37210	28600	31477	32759	32880	
1872	0	38836	29703	33811	32578	32807	
1873	0	37846	31961	36143	32805	32957	
1874	0	36840	33910	39712	33027	32775	
1875	0	36380	34978	42206	32883	32658	
1876	0	35088	34971	38405	32759	32871	
1877	0	35189	34178	27919	32595	32957	
1878	0	37924	33708	24437	32708	32960	
1879	0	39890	33901	26011	32685	32893	
1880	0	39306	34235	27562	32374	32755	
1881	0	37482	34089	21664	32405	32647	
1882	0	34688	33439	22938	32144	32711	
1883	0	31664	32471	27685	32540	32858	
1884	0	28586	31556	34485	33122	32853	
1885	0	25437	30703	40247	33326	32848	
1886	0	23822	30645	37679	33328	32757	
1887	0	25032	30562	31805	33314	32738	
1888	0	28541	31737	29523	33277	32861	
1889	0	32372	32562	29561	33053	32804	
1890	0	34988	32663	30838	33023	32958	
1891	0	34977	32418	35751	32717	32967	
1892	0	34072	32231	39783	32667	32850	
1893	0	33316	31697	39515	32672	32755	
1894	0	31435	30869	37033	32831	32775	
1895	0	30975	30889	34100	32879	32763	
1896	0	31532	31685	30215	32839	32711	
1897	0	31106	33007	30672	32801	32815	
1898	0	29622	33929	36507	32772	32775	
1899	0	28896	33769	38900	32717	32902	
1900	0	29680	34153	37669	32427	32975	
1901	0	31024	33785	30172	32186	32978	
1902	0	33993	33930	23754	32213	32908	
1903	0	36858	34154	21634	32120	32963	
1904	0	38678	34066	27470	32391	32795	
1905	0	38796	34066	34594	32077	32952	
1906	0	37776	33655	37823	32263	32961	
1907	0	36108	32967	34133	32309	32743	
1908	0	33516	32689	30091	32478	32731	
1909	0	31323	32285	32477	33230	32759	
1910	0	29348	31147	38819	33432	32744	
1911	0	28090	30753	44219	33620	32866	
1912	0	29304	30918	47935	33442	32750	
1913	0	30224	31734	42819	33330	32707	
1914	0	30769	33107	33922	33243	32736	
1915	0	31364	34061	25613	32658	32864	
1916	0	31412	33454	18244	32313	32905	
1917	0	31876	31894	12662	32199	32864	
1918	0	32402	30724	17174	32742	32952	
1919	0	32976	31120	28657	32802	32907	
1920	0	32226	32679	32613	33159	32865	
1921	0	32372	33271	31186	33151	32839	
1922	0	33792	33720	31751	33113	32950	
1923	0	37404	34447	36987	33072	32706	
1924	0	39498	34683	39653	33062	32690	
1925	0	38752	34734	39959	32829	32896	
1926	0	37968	34149	39921	32861	32935	
1927	0	36150	32731	38998	32466	32918	
1928	0	33860	31395	37589	32077	32772	
1929	0	31744	31422	33037	32639	32745	
1930	0	30180	32347	32562	32963	32772	
1931	0	29268	33944	35150	33056	32765	
1932	0	29508	35024	37176	32924	32823	
1933	0	29356	34603	32251	32967	32951	
1934	0	30068	33532	23831	33012	33021	
1935	0	32702	31791	23718	32708	32919	
1936	0	33960	29272	32390	32415	32893	
1937	0	32668	27966	40315	32744	32690	
1938	0	30524	27827	43886	33666	32884	
1939	0	29766	28371	47282	33507	32908	
1940	0	30194	29560	42234	32295	32740	
1941	0	35308	31352	31186	32040	32692	
1942	0	40872	33265	17963	32674	32830	
1943	0	43408	34875	10739	32804	32992	
1944	0	43186	35943	13527	32710	32803	
1945	0	40872	35083	22572	32791	32745	
1946	0	38388	33272	29609	32956	32982	
1947	0	35082	31653	35231	32624	32860	
1948	0	30424	31357	41648	32556	32756	
1949	0	26787	32460	43370	32813	32929	
1950	0	24932	33431	38215	32701	32717	
1951	0	24507	34055	35427	32603	32836	
1952	0	25253	34719	34717	32386	32850	
1953	0	26246	34695	30555	32279	32679	
1954	0	27344	34227	27698	32471	32863	
1955	0	28858	33938	29142	32772	32885	
1956	0	30161	33901	31963	32809	32658	
1957	0	32153	33187	36742	32347	32909	
1958	0	33272	31917	38034	32277	32711	
1959	0	32945	30567	39043	32304	32999	
1960	0	31981	30087	38535	32431	32997	
1961	0	30999	30125	37846	32409	32879	
1962	0	30640	30553	31382	32538	32736	
1963	0	31408	30571	24544	32548	32952	
1964	0	32638	31149	22535	33450	32923	
1965	0	33906	32246	27453	33980	32881	
1966	0	36144	33454	34212	34113	32932	
1967	0	38472	34918	36047	34157	32786	
1968	0	39919	35275	35207	33704	32789	
1969	0	38507	34621	37070	33067	32809	
1970	0	36132	33955	39511	32813	32943	
1971	0	33894	33396	38430	33088	32737	
1972	0	31219	32950	30544	33110	32766	
1973	0	28584	33029	27809	33115	32987	
1974	0	26456	33104	29037	33083	32857	
1975	0	25291	34022	31022	32843	32767	
1976	0	27003	34438	37486	32164	33003	
1977	0	29440	34362	39213	31687	32760	
1978	0	31997	34147	36779	31698	32791	
1979	0	33936	32644	33442	32073	32759	
1980	0	35184	30916	29201	32685	32893	
1981	0	35481	29580	21787	32705	32929	
1982	0	35108	29214	17379	32060	32859	
1983	0	35335	29808	22203	32549	32720	
1984	0	36116	31213	30183	32862	32815	
1985	0	37613	32535	34552	33397	33021	
1986	0	38040	32857	34787	33165	32825	
1987	0	37023	33421	34209	32693	32723	
1988	0	35074	34582	35051	32519	32743	
1989	0	32091	34981	31901	32377	32856	
1990	0	29545	34835	31303	32722	32974	
1991	0	28491	34201	35115	33080	32962	
1992	0	29234	33586	40253	32815	32739	
1993	0	30575	33131	42167	32647	32698	
1994	0	33040	33152	39720	33170	32663	
1995	0	34550	32679	37267	33035	32735	
1996	0	35950	31761	42490	32688	32948	
1997	0	36758	31269	39860	32610	33081	
1998	0	35917	30954	32415	32645	32723	
1999	0	33188	30392	28624	32795	32958	
2000	0	30573	30808	22843	32605	32730	
2001	0	29501	31531	18931	32503	32809	
2002	0	29950	32612	21535	32768	32958	
2003	0	31687	34149	30252	32519	32816	
2004	0	34985	35975	32160	32365	32679	
2005	0	35684	38041	31747	32548	32875	
2006	0	34199	38713	32081	33065	32928	
2007	0	32361	38215	34582	33311	32967	
2008	0	29685	34851	37536	32677	32982	
2009	0	27224	29585	36770	33005	32975	
2010	0	26568	25731	35192	33061	32943	
2011	0	27359	24506	35207	32973	32902	
2012	0	29609	26288	36202	33013	32731	
2013	0	33330	29725	35714	33104	32708	
2014	0	36359	32730	34683	33249	32672	
2015	0	38720	35125	34698	32895	32737	
2016	0	39373	36195	35677	32335	32899	
2017	0	38182	36086	36091	32515	32944	
2018	0	35396	34176	38390	32498	32898	
2019	0	32174	31657	40469	32342	32731	
2020	0	29104	29359	37676	32162	32813	
2021	0	26342	28754	30318	32016	32885	
2022	0	25316	30235	23856	32493	32951	
2023	0	26756	32420	20807	33248	32937	
2024	0	30016	33903	21424	33095	32979	
2025	0	34515	33756	23807	33377	32938	
2026	0	39644	33071	26873	33540	32967	
2027	0	42234	31971	31495	33245	32945	
2028	0	41182	31675	35562	33159	32832	
2029	0	38492	31479	34471	32948	32894	
2030	0	36174	32301	33043	32887	32802	
2031	0	34717	33220	35795	32651	32962	
2032	0	33498	33910	38304	32441	32911	
2033	0	31700	34533	37530	32483	32973	
2034	0	30634	35011	35051	32557	32989	
2035	0	29870	34262	35757	32507	32709	
2036	0	29026	32970	36137	32548	32839	
2037	0	28659	32248	29758	32655	32886	
2038	0	29114	31781	32964	32593	32834	
2039	0	29354	31559	38904	32400	32686	
2040	0	28538	31458	36989	32263	32723	
2041	0	27748	31205	27762	32647	32652	
2042	0	27130	32291	22559	32877	32601	
2043	0	28425	33379	20558	32923	32428	
2044	0	31843	34751	24159	33092	32527	
2045	0	36292	35533	32087	33081	32696	
2046	0	39321	35404	39255	33384	32817	
2047	0	39908	35266	44275	33509	33018	
2048	0	39532	35377	43684	33287	32935	
2049	0	37628	34949	43151	32955	32813	
2050	0	34110	34326	35791	32313	33074	
2051	0	31152	33699	23273	32184	32845	
2052	0	29088	33422	17903	32600	32813	
2053	0	30129	32709	17095	33170	32943	
2054	0	31063	30439	20059	33863	32932	
2055	0	32368	28142	25803	32962	32915	
2056	0	33540	26718	32909	32736	32923	
2057	0	34792	26648	36140	32349	32797	
2058	0	33954	28167	36719	32302	32753	
2059	0	33069	30907	37418	32169	32831	
2060	0	33286	33065	39824	32609	33027	
2061	0	33366	34079	41563	32787	32770	
2062	0	33196	33339	42055	32666	32873	
2063	0	33911	32839	41458	32797	33007	
2064	0	34969	33181	42407	32767	33014	
2065	0	33865	33569	42811	32805	32958	
2066	0	31488	33211	44435	32860	32924	
2067	0	28891	33446	39927	32898	32811	
2068	0	28080	33238	31413	32645	32809	
2069	0	29640	33099	21688	32707	32792	
2070	0	32250	33458	19191	32490	32839	
2071	0	33412	33799	26102	32443	32724	
2072	0	33196	33879	28620	32875	32699	
2073	0	32934	34233	31748	32583	32848	
2074	0	31632	34693	29511	32600	32958	
2075	0	30468	34262	21056	32601	32918	
2076	0	29337	34475	21119	33047	32698	
2077	0	29244	33945	24100	33132	32927	
2078	0	31369	32737	33280	33060	32941	
2079	0	33936	32116	39146	32920	32864	
2080	0	36312	31823	40735	32531	32760	
2081	0	37627	31935	38166	32549	32646	
2082	0	37765	32197	37687	32466	32693	
2083	0	37818	32504	39367	32923	32805	
2084	0	36521	32398	37479	33005	32947	
2085	0	35022	31716	36179	33273	32947	
2086	0	32176	31269	36674	33129	32943	
2087	0	29033	32394	30262	32938	32744	
2088	0	27699	33683	22577	33074	32700	
2089	0	28242	34610	23200	32958	32848	
2090	0	29702	34803	29127	33105	32905	
2091	0	31297	33159	29789	32981	32941	
2092	0	32160	31313	29627	32496	32955	
2093	0	33942	30045	31963	32483	32873	
2094	0	35373	29880	33182	32355	32959	
2095	0	36120	30492	33767	32541	32961	
2096	0	35684	31936	35704	32755	32711	
2097	0	33378	32507	38727	33213	32874	
2098	0	31470	32534	40948	33442	32960	
2099	0	31460	31683	41597	32775	33005	
2100	0	31699	30932	39159	32413	32871	
2101	0	31717	30514	37025	32605	32710	
2102	0	31207	31469	31045	32558	32939	
2103	0	30640	32937	25607	32448	32792	
2104	0	32335	34516	27943	32481	32799	
2105	0	34275	35835	32707	32481	32951	
2106	0	34648	36346	34537	32855	32824	
2107	0	35427	36195	29977	32587	32821	
2108	0	35662	35231	26689	32608	33003	
2109	0	35920	33926	27433	32688	32943	
2110	0	36584	32877	31901	32792	32934	
2111	0	36199	32415	33405	32977	32737	
2112	0	34162	32711	33765	32994	32775	
2113	0	32339	32914	37963	32775	32940	
2114	0	31620	33663	36210	32467	32989	
2115	0	30034	34339	27450	32315	32979	
2116	0	27620	33749	21226	32382	32809	
2117	0	24921	32818	22737	32464	32715	
2118	0	24804	31446	26298	32923	32729	
2119	0	26813	29459	30681	33083	32851	
2120	0	30118	29431	34710	33275	32656	
2121	0	34360	30092	35365	32946	32655	
2122	0	40300	30160	36944	32891	32904	
2123	0	42951	29840	40914	32765	32681	
2124	0	42162	30465	43650	32885	32905	
2125	0	38962	30657	42139	33317	32869	
2126	0	34865	30605	41464	33510	32917	
2127	0	31874	31382	41274	33726	32960	
2128	0	29584	32108	42687	33767	32803	
2129	0	28487	32763	39915	33605	32763	
2130	0	29244	34173	33926	33095	32792	
2131	0	31773	34739	27169	32645	32894	
2132	0	33878	34426	22866	32224	33016	
2133	0	33530	34240	25464	32025	33021	
2134	0	31648	33941	26577	32415	32914	
2135	0	30403	33864	22325	32879	32775	
2136	0	29797	33591	13531	31832	32784	
2137	0	30862	33216	16752	32191	32957	
2138	0	33562	32615	25772	32485	32917	
2139	0	36816	32549	29584	32704	32868	
2140	0	38022	32553	33607	32002	32767	
2141	0	37383	32812	39259	32051	32688	
2142	0	34768	32578	42855	32393	32841	
2143	0	31600	32097	43638	32630	32886	
2144	0	30066	31571	44176	33002	32927	
2145	0	29917	31537	45087	33222	32836	
2146	0	29079	32418	42187	33581	32711	
2147	0	27687	33076	33675	33438	32818	
2148	0	27074	32933	27973	32775	32903	
2149	0	28246	33415	26320	32541	32797	
2150	0	31432	34488	30713	32474	32724	
2151	0	36005	34660	33133	33019	32689	
2152	0	40212	34674	30351	33486	32900	
2153	0	40987	34725	26203	33424	32962	
2154	0	39984	35153	25423	32502	33066	
2155	0	37552	34818	30343	31517	33095	
2156	0	35160	33875	36850	31239	32967	
2157	0	31997	32451	38727	32237	32846	
2158	0	28233	30188	35877	32460	32917	
2159	0	25794	28480	37040	32717	32988	
2160	0	25222	27895	39480	33280	32909	
2161	0	26119	28439	35031	32896	32865	
2162	0	27865	29911	29840	32755	32623	
2163	0	30258	31541	29113	32858	32605	
2164	0	33246	32487	30265	33019	32523	
2165	0	36481	32119	33113	33863	32760	
2166	0	37186	32121	35109	34412	32996	
2167	0	37276	33447	35672	33605	32727	
2168	0	34538	35083	33553	32861	32811	
2169	0	31939	36287	29149	32496	33061	
2170	0	30724	36681	23845	32425	32757	
2171	0	31056	36242	24620	32431	32818	
2172	0	31188	36253	33388	32543	32891	
2173	0	30400	35468	43155	33123	32755	
2174	0	30037	34082	42411	33175	32677	
2175	0	31958	32206	36440	32957	32769	
2176	0	33700	30012	29728	32539	33001	
2177	0	35764	28392	21083	32050	32989	
2178	0	37600	28134	14203	32158	32836	
2179	0	37659	29478	14759	32446	32935	
2180	0	36941	31159	27861	32372	32996	
2181	0	33314	32336	40012	33308	32995	
2182	0	28750	33420	46538	33420	32930	
2183	0	27024	33260	50934	33254	32801	
2184	0	27723	32509	49239	32467	32725	
2185	0	30066	32824	41118	32356	32920	
2186	0	32952	33196	31776	32615	33067	
2187	0	36095	33450	24836	32558	32839	
2188	0	37597	33574	23955	32824	32772	
2189	0	37986	33511	25519	32433	32991	
2190	0	37179	33211	31334	32801	32952	
2191	0	36724	33112	35680	32774	32848	
2192	0	34738	32839	41395	32857	32644	
2193	0	32442	32601	43296	32955	32657	
2194	0	28642	32819	38594	32834	32804	
2195	0	26806	33053	27922	32759	32939	
2196	0	26953	33443	22359	32529	32836	
2197	0	28096	34370	30247	32469	32759	
2198	0	29123	34410	34649	32579	32988	
2199	0	29378	33142	24770	32831	32805	
2200	0	29452	32184	17716	32390	32934	
2201	0	31045	31791	17696	32812	32999	
2202	0	34156	32221	25680	32741	32796	
2203	0	37868	33338	31133	32920	32738	
2204	0	40391	34170	35704	32880	32950	
2205	0	40821	34246	37235	33189	32754	
2206	0	39104	34004	40417	33199	32972	
2207	0	37315	34359	41639	33263	32929	
2208	0	34085	33328	41362	33243	32818	
2209	0	31244	31682	44609	33182	32677	
2210	0	30437	29446	46816	33275	32920	
2211	0	30972	27337	46018	33017	32861	
2212	0	31129	26241	44141	32775	32757	
2213	0	31280	27696	37998	32764	32997	
2214	0	29420	30063	26464	32732	32898	
2215	0	28304	32400	16009	32575	32771	
2216	0	29064	34099	16085	32503	32967	
2217	0	31425	34295	20929	32420	32871	
2218	0	35470	33788	25954	32062	32756	
2219	0	37490	33119	31253	32109	32962	
2220	0	37769	32706	34275	32386	32903	
2221	0	37058	33223	32655	32287	32791	
2222	0	36468	34221	33863	32587	32688	
2223	0	36146	34929	37070	32921	32849	
2224	0	39338	34669	42344	32807	32856	
2225	0	40820	33572	39212	32720	32953	
2226	0	37933	32627	32295	32936	32875	
2227	0	32692	31825	32475	33232	32704	
2228	0	28144	31906	29933	33430	32821	
2229	0	25440	32438	22928	33012	32963	
2230	0	23268	33148	18311	32914	32944	
2231	0	22611	34885	24909	32745	32921	
2232	0	22676	35891	34678	32432	32911	
2233	0	23573	35995	40097	32734	32738	
2234	0	25011	35663	39651	32659	33007	
2235	0	26814	33765	34902	33150	32973	
2236	0	27207	31919	30707	32875	32723	
2237	0	27224	30301	31469	33035	32762	
2238	0	30063	29726	35271	33337	32906	
2239	0	33962	30802	37813	33287	32902	
2240	0	38380	31905	38544	33226	32631	
2241	0	43392	32744	36108	33083	32770	
2242	0	46525	32229	33347	32960	32930	
2243	0	46914	31328	33589	32992	32705	
2244	0	43665	31556	37083	33223	32743	
2245	0	39778	31883	38211	32371	32871	
2246	0	36800	32869	33347	31538	32971	
2247	0	33996	33405	27511	31678	32984	
2248	0	31392	34136	28167	31952	32927	
2249	0	28400	34635	32064	32325	32889	
2250	0	27411	34351	34215	33146	32775	
2251	0	27369	32775	32624	33448	32751	
2252	0	28856	31943	27517	33174	32912	
2253	0	30003	31259	22390	32730	33012	
2254	0	29683	30919	20051	32614	32870	
2255	0	29737	31412	24946	32721	32697	
2256	0	30641	31504	31877	32254	32733	
2257	0	31600	32005	35015	32317	32839	
2258	0	32488	32420	38795	32711	32939	
2259	0	33474	33062	40327	33163	32851	
2260	0	33883	32101	40627	33171	32775	
2261	0	33532	31023	38407	32812	32943	
2262	0	33257	30140	37355	32865	32985	
2263	0	33362	30663	36922	32971	32929	
2264	0	33875	32321	33410	33188	32773	
2265	0	33799	33479	29118	33243	32587	
2266	0	32804	34363	30864	33055	32699	
2267	0	32489	35254	34747	32305	32922	
2268	0	32328	35591	34322	31449	32973	
2269	0	31871	34709	33899	32225	32937	
2270	0	31383	33985	36499	32603	32847	
2271	0	31008	33061	32561	32600	32888	
2272	0	32616	32705	22106	32902	33000	
2273	0	34980	33053	21531	33062	33046	
2274	0	35393	33234	27053	33105	33124	
2275	0	35693	33997	37695	32569	33002	
2276	0	34420	33799	42585	32293	32839	
2277	0	32037	33866	35294	32630	32592	
2278	0	30384	32921	24113	33344	32504	
2279	0	29242	32253	21210	33391	32631	
2280	0	29890	31718	25682	33175	32659	
2281	0	31268	31666	33380	32975	32753	
2282	0	33244	31533	38640	32874	32955	
2283	0	35152	31643	41121	32945	33001	
2284	0	35509	31769	42482	32909	32991	
2285	0	34448	32091	42923	32913	32820	
2286	0	33872	32108	38612	32835	32785	
2287	0	32948	31548	25228	32800	32781	
2288	0	32562	31507	18824	32308	32997	
2289	0	33388	32320	25539	32511	33058	
2290	0	34192	33305	32885	32282	33035	
2291	0	33816	33954	34444	32384	32704	
2292	0	31988	34463	32799	32738	32567	
2293	0	30053	34909	30871	32955	32955	
2294	0	28360	35151	33398	32839	32921	
2295	0	28187	34966	37043	32769	32797	
2296	0	31365	34288	40504	32805	32672	
2297	0	37072	33266	40420	33045	32839	
2298	0	42503	31245	39302	33027	32903	
2299	0	43920	28737	40687	33252	32849	
2300	0	42670	27318	39468	33144	32763	
2301	0	38944	27548	29752	32936	32752	
2302	0	35219	28914	18765	32916	32842	
2303	0	32161	29873	18448	33086	33009	
2304	0	29528	30991	26285	33078	32868	
2305	0	27014	32531	30427	33183	32920	
2306	0	25794	34555	32233	33099	33019	
2307	0	25418	35992	33379	33029	33043	
2308	0	25743	36257	30015	32839	32958	
2309	0	27754	35619	29051	32576	32775	
2310	0	30188	35252	34693	32395	32720	
2311	0	31920	34211	38535	32688	32647	
2312	0	33694	33279	36903	32692	32658	
2313	0	34658	32149	36991	32775	32667	
2314	0	33671	31738	36380	32561	32897	
2315	0	31472	32178	36865	32339	32984	
2316	0	30318	33729	37773	32070	32903	
2317	0	29884	35245	35747	32162	32865	
2318	0	27866	35110	31461	32360	32743	
2319	0	27154	33979	27366	33323	32771	
2320	0	28246	32149	27201	33011	32981	
2321	0	31104	29947	26980	33127	32962	
2322	0	34994	29584	28091	32839	32903	
2323	0	37442	29387	30121	33353	32736	
2324	0	38496	29250	35138	33042	32911	
2325	0	38596	30479	38875	32803	32973	
2326	0	37894	31890	35302	32615	32865	
2327	0	36232	32950	31961	32375	32685	
2328	0	34633	33698	32609	32517	32898	
2329	0	33616	34223	34887	32484	32927	
2330	0	34224	34409	30889	32521	32763	
2331	0	33730	34370	27487	33071	32793	
2332	0	32888	33987	28877	33453	32961	
2333	0	31837	33792	33271	32997	32775	
2334	0	30687	33181	33645	32726	32674	
2335	0	29750	32454	35649	32664	32809	
2336	0	29884	32127	36258	32659	32981	
2337	0	30415	31925	35763	32935	32695	
2338	0	31282	31967	35693	32667	32949	
2339	0	32752	32382	33219	32455	33007	
2340	0	34305	33558	27541	32531	32717	
2341	0	34010	34098	27897	32871	32977	
2342	0	34984	34267	31834	33058	32912	
2343	0	36410	34596	32755	32649	32879	
2344	0	37153	34189	32381	32290	32849	
2345	0	36684	33730	32774	32673	32975	
2346	0	32888	33111	31239	32848	32775	
2347	0	28856	32582	30749	32943	32702	
2348	0	26122	32256	36546	32796	32866	
2349	0	26383	32147	38439	32717	32943	
2350	0	29440	32157	34362	32601	32942	
2351	0	33358	31584	29774	32605	32970	
2352	0	38306	31108	30200	33028	32868	
2353	0	41530	31095	31599	32851	32738	
2354	0	41621	31269	32898	33047	32694	
2355	0	39020	31175	33593	33075	32761	
2356	0	35309	31793	30954	33325	32789	
2357	0	31547	32275	28185	33320	32845	
2358	0	27712	33394	31313	32832	32957	
2359	0	26156	33975	33479	32361	32863	
2360	0	26539	34011	33833	32377	32717	
2361	0	28461	33779	37696	32798	32737	
2362	0	28989	32741	41511	32642	32955	
2363	0	28969	31939	40277	32677	32869	
2364	0	28964	32023	37515	32912	32743	
2365	0	29591	32092	35058	32723	32885	
2366	0	30708	33181	34475	32683	32699	
2367	0	32044	34651	32563	32662	33001	
2368	0	34200	36256	26670	32677	32865	
2369	0	35314	36103	25750	32838	32705	
2370	0	35619	35130	26541	32681	32762	
2371	0	35144	32807	26408	32882	32948	
2372	0	33504	29556	26610	33271	32890	
2373	0	32441	26879	30045	33506	32744	
2374	0	34364	26028	38144	33107	32749	
2375	0	36521	26842	37956	33125	32888	
2376	0	37372	28768	33591	33125	32650	
2377	0	36957	30915	31603	32813	33015	
2378	0	36720	32667	33383	32567	32825	
2379	0	36136	33607	32961	32467	32691	
2380	0	33683	34463	30605	32515	32909	
2381	0	32008	35899	36125	32477	32876	
2382	0	31456	36735	39111	32588	32677	
2383	0	31835	37446	36017	32639	32899	
2384	0	31618	36995	28563	32541	32967	
2385	0	32809	35699	23977	33025	32775	
2386	0	35094	34100	27045	33246	32720	
2387	0	36231	32387	33383	33027	32876	
2388	0	35588	31293	35139	33314	32971	
2389	0	34412	30215	32793	33375	32949	
2390	0	33568	30329	31847	32903	32943	
2391	0	33740	31483	32949	32371	32775	
2392	0	32260	31680	36766	32305	32772	
2393	0	30201	32403	36599	32775	33020	
2394	0	28530	33071	34215	33231	32818	
2395	0	26713	33247	31941	32309	32803	
2396	0	25870	33922	29909	32412	33009	
2397	0	24864	33683	30475	32932	33000	
2398	0	24942	33785	31548	32580	32819	
2399	0	26853	34443	35979	32377	32795	
2400	0	30992	34267	36485	32658	32928	
2401	0	36502	33951	32838	33333	32816	
2402	0	39961	32641	31639	33469	32692	
2403	0	40000	30432	32708	32659	32877	
2404	0	38720	27978	32623	32101	32934	
2405	0	37864	26981	33821	32403	32792	
2406	0	36550	27994	40546	32944	32999	
2407	0	34722	29448	44487	32910	33024	
2408	0	33908	31875	41016	32357	32997	
2409	0	32732	33593	37325	32447	32863	
2410	0	31621	35321	29692	32715	32720	
2411	0	30687	36860	24247	32676	32746	
2412	0	29854	36850	17642	32485	32556	
2413	0	28986	35911	15459	32660	32736	
2414	0	29046	33799	17687	32863	32912	
2415	0	28899	32131	21836	33053	32754	
2416	0	29895	30725	28967	33101	32791	
2417	0	30644	29902	32478	32967	32945	
2418	0	31201	30151	34463	32903	32795	
2419	0	32134	30747	39714	32601	32766	
2420	0	33314	32188	44167	32678	32680	
2421	0	33360	33910	43321	32929	32759	
2422	0	33418	34277	43907	32849	32920	
2423	0	33799	34033	46163	32857	32834	
2424	0	34194	33700	38186	32770	32751	
2425	0	35330	33918	27456	32650	32921	
2426	0	36004	34215	23717	32451	32769	
2427	0	35368	34009	27894	32677	32955	
2428	0	33706	33524	33613	32679	32797	
2429	0	31476	33309	38168	32750	32705	
2430	0	30034	33946	38069	32819	32978	
2431	0	28344	33975	33514	32983	32972	
2432	0	26356	33489	27945	32946	32767	
2433	0	26104	32187	35185	32944	32905	
2434	0	28988	30599	39809	32741	32989	
2435	0	32564	29771	33368	32612	32738	
2436	0	35132	29914	28202	32725	32958	
2437	0	36496	31462	26935	32925	32917	
2438	0	36678	33479	24900	33055	32694	
2439	0	37144	34823	27536	32816	32854	
2440	0	36770	34794	29611	33063	32869	
2441	0	36104	34405	30380	33224	32822	
2442	0	36888	33599	29856	33148	32706	
2443	0	38042	33133	30169	33037	32973	
2444	0	38371	33226	34127	32922	32845	
2445	0	37172	33773	37018	32711	32750	
2446	0	34610	33418	37361	32747	32935	
2447	0	29792	32256	35487	33023	32912	
2448	0	25682	30847	33509	32881	32757	
2449	0	24105	29555	31811	32800	32796	
2450	0	26059	29271	32109	32591	32991	
2451	0	28564	29453	34527	32493	32955	
2452	0	31985	30915	35411	32301	32729	
2453	0	35808	32955	34987	32353	32789	
2454	0	38272	34597	35111	32355	32928	
2455	0	39125	35593	34534	32597	32929	
2456	0	36632	34757	33442	32918	32996	
2457	0	32928	32791	35797	32937	32937	
2458	0	31360	31324	33676	32839	32772	
2459	0	31136	31666	29072	32879	32669	
2460	0	32018	33312	28711	32867	32698	
2461	0	33918	34574	30556	32845	32851	
2462	0	35751	34580	33126	33071	32955	
2463	0	36688	33586	36347	33141	32933	
2464	0	34460	31915	37762	33165	32827	
2465	0	31432	30874	35388	33154	32736	
2466	0	28802	30616	32147	32800	32805	
2467	0	29454	31183	29786	32813	33037	
2468	0	32193	32226	29034	32773	32902	
2469	0	34542	32736	27879	32384	32729	
2470	0	35243	32557	26951	32727	32699	
2471	0	34272	32645	29872	32753	32817	
2472	0	31088	32717	33783	32694	32941	
2473	0	27106	32809	34099	32384	32839	
2474	0	23894	32725	32739	32489	32681	
2475	0	22920	32420	28962	32552	32829	
2476	0	23446	31608	26971	32829	32967	
2477	0	25073	31083	33141	33360	32868	
2478	0	27889	31047	38187	33219	32717	
2479	0	31620	32087	37865	32784	32692	
2480	0	36784	33140	34200	32473	32709	
2481	0	41922	34181	30139	32877	32702	
2482	0	47664	34706	27634	33102	32684	
2483	0	49920	35088	29577	33247	32812	
2484	0	47811	34427	33174	32799	32801	
2485	0	42268	33337	35458	32647	32775	
2486	0	36112	32198	32344	32711	32905	
2487	0	30687	31737	27408	32681	32994	
2488	0	29235	31949	25325	32833	32967	
2489	0	29746	31983	31446	32909	32988	
2490	0	31336	32409	38704	32984	33011	
2491	0	32395	33812	42356	33040	32931	
2492	0	32156	34582	43335	32683	32987	
2493	0	30342	35520	43794	32632	32898	
2494	0	28552	35460	41472	32925	32743	
2495	0	26348	34005	30764	32548	32944	
2496	0	24656	31124	23296	31945	32976	
2497	0	22842	29370	25689	32427	32793	
2498	0	22912	28636	32952	31985	32733	
2499	0	24602	29526	37760	32130	32877	
2500	0	25980	31610	33740	32732	32937	
2501	0	28841	33542	27366	32661	32877	
2502	0	33437	34092	28115	32728	32827	
2503	0	37784	33463	30580	32716	32699	
2504	0	40391	32302	33088	32775	32913	
2505	0	42262	31508	38148	33115	32989	
2506	0	41090	31209	40199	33240	32756	
2507	0	38917	31424	36462	33190	32726	
2508	0	36688	32244	26660	33242	32832	
2509	0	35548	33397	25430	33121	32834	
2510	0	36114	34612	30169	33223	32917	
2511	0	36944	35936	34872	32736	32908	
2512	0	36780	36577	33828	32606	32766	
2513	0	36285	35843	30271	32762	32717	
2514	0	32839	33746	30813	32975	32775	
2515	0	28445	31421	31466	32742	32813	
2516	0	26061	30978	30826	32615	32944	
2517	0	26168	31040	27305	32941	33050	
2518	0	27824	31377	30215	32793	33012	
2519	0	31608	30992	34344	33045	33010	
2520	0	35325	30087	39396	33275	32868	
2521	0	36322	29554	39479	33192	32728	
2522	0	37082	29934	30556	33194	32669	
2523	0	36941	31367	29003	32898	32664	
2524	0	35220	32645	33878	32423	32690	
2525	0	33128	33799	38779	32283	32929	
2526	0	31190	33837	38855	32119	32980	
2527	0	30173	32927	39116	33325	32818	
2528	0	29732	32027	38829	34013	32721	
2529	0	28548	32130	37003	32575	32795	
2530	0	28396	32812	30986	31852	32951	
2531	0	29574	33396	20162	31826	32960	
2532	0	30695	34140	19186	31489	33057	
2533	0	31232	34477	25450	32543	32999	
2534	0	31076	34387	29087	32815	32875	
2535	0	31516	34083	31762	32855	32959	
2536	0	31130	34296	34050	32773	32936	
2537	0	29826	35295	36696	32972	32865	
2538	0	29423	36495	36419	33055	32794	
2539	0	31160	36039	34781	33278	32583	
2540	0	33541	33943	33530	33214	32577	
2541	0	36276	31849	35512	33266	32813	
2542	0	36976	29615	39533	32909	32854	
2543	0	38081	28082	40883	32528	32827	
2544	0	37048	28595	38680	32472	32775	
2545	0	34955	30529	33678	32518	32886	
2546	0	33567	32669	28067	32538	33013	
2547	0	33168	34469	26888	33069	32975	
2548	0	34424	36093	26247	32033	32863	
2549	0	35032	36943	21681	32143	32904	
2550	0	35590	36269	22091	32409	32899	
2551	0	35929	34592	28997	32535	32986	
2552	0	34781	32754	32939	32704	32869	
2553	0	32896	30818	33073	33053	32715	
2554	0	31496	28947	33232	33680	32758	
2555	0	31305	27664	33565	33775	32787	
2556	0	31597	27647	36038	33799	32898	
2557	0	32362	28879	38066	33589	32925	
2558	0	32547	30477	38479	33157	32831	
2559	0	31463	31895	39421	32819	32866	
2560	0	30361	32143	40269	32525	32767	
2561	0	29097	32012	41966	32343	32711	
2562	0	26998	32333	43399	31978	32964	
2563	0	24316	32442	40338	32618	32987	
2564	0	23151	33492	33311	33068	32884	
2565	0	24951	34848	22491	32680	32870	
2566	0	29502	35017	17046	32839	32696	
2567	0	35758	34834	23544	32786	32696	
2568	0	41512	33922	29908	32663	32732	
2569	0	45200	33061	33182	32275	32839	
2570	0	44836	32598	29447	32432	32813	
2571	0	42448	32647	28383	32379	32793	
2572	0	37885	33274	30298	32301	32720	
2573	0	33998	34538	34550	32642	32765	
2574	0	30938	35958	30809	32728	32740	
2575	0	28600	36802	23072	32872	32863	
2576	0	27692	37594	22226	33386	32749	
2577	0	29338	38244	29778	33442	32843	
2578	0	31993	36320	33327	33410	32861	
2579	0	34016	31559	37661	33347	32920	
2580	0	35365	26577	42640	32518	32868	
2581	0	34940	23212	44679	32390	32845	
2582	0	32232	22443	39894	32931	32698	
2583	0	29914	24066	35827	32755	32845	
2584	0	28192	27685	37851	32450	32938	
2585	0	27188	31922	40582	33112	32740	
2586	0	28004	36359	41643	32484	32704	
2587	0	30266	38757	39890	32208	32886	
2588	0	33570	38983	35815	32946	32963	
2589	0	34176	37126	35086	33366	32935	
2590	0	33508	34283	33639	33012	32858	
2591	0	32700	32052	25480	32845	32735	
2592	0	31992	31531	19975	32848	32971	
2593	0	31528	31950	28103	32600	32824	
2594	0	33740	33386	33375	32824	32935	
2595	0	35017	34546	28551	32863	32706	
2596	0	36770	34684	22149	32880	32989	
2597	0	38240	34232	22225	32775	32849	
2598	0	37970	33173	21087	33095	32739	
2599	0	38290	31982	27920	32956	32976	
2600	0	37890	30640	36871	32865	32948	
2601	0	36219	29319	40013	32743	32789	
2602	0	33517	28178	38318	32703	32761	
2603	0	29985	28120	34375	32690	32902	
2604	0	26640	29439	29167	32358	32943	
2605	0	24683	31597	28884	32420	32909	
2606	0	23642	33548	33037	32293	32794	
2607	0	24738	34627	35795	32551	32745	
2608	0	29000	34975	34248	32412	32775	
2609	0	33488	35011	35070	32492	32960	
2610	0	37042	36514	39448	32589	32978	
2611	0	39525	37563	43388	32686	32924	
2612	0	40420	37047	44591	32615	32835	
2613	0	39555	35383	39196	33039	32908	
2614	0	37652	33187	33165	33572	32967	
2615	0	35693	31028	28923	33638	32967	
2616	0	33852	30125	25821	33643	33014	
2617	0	31814	30948	24474	33298	32941	
2618	0	30081	31648	28443	32903	32847	
2619	0	27842	32993	29891	32809	32887	
2620	0	25688	33711	31867	32356	32865	
2621	0	26205	32948	37226	32012	32671	
2622	0	28715	32327	38343	32119	32774	
2623	0	31256	32381	30290	32887	32941	
2624	0	33697	32339	25232	33479	32989	
2625	0	35207	31823	24989	33525	32919	
2626	0	35642	31367	27237	33575	32954	
2627	0	35373	30825	27463	33671	32953	
2628	0	35899	31044	31007	33227	32815	
2629	0	35384	30595	37457	32827	32914	
2630	0	33483	29927	39849	32063	32762	
2631	0	31448	30559	37954	31707	32803	
2632	0	30689	31190	36927	32455	32735	
2633	0	30172	32208	29512	32641	32960	
2634	0	29763	33151	25319	32239	32906	
2635	0	30281	33836	28791	31830	32838	
2636	0	31032	34327	32235	32604	32689	
2637	0	30880	34554	37173	33714	32839	
2638	0	30432	34123	41518	33666	32896	
2639	0	30303	33919	42757	33821	32647	
2640	0	30598	34100	39533	31995	32630	
2641	0	31881	33837	39721	30591	32838	
2642	0	34069	34369	36487	30907	33040	
2643	0	36527	34992	32109	32033	32893	
2644	0	38618	35127	31036	32666	32809	
2645	0	40223	34587	31529	33320	32746	
2646	0	40058	34216	31940	33643	32775	
2647	0	38001	33856	27600	33615	32861	
2648	0	35481	33951	24189	33155	32995	
2649	0	32909	33621	19108	33254	33036	
2650	0	30522	31373	21917	33145	33005	
2651	0	27268	28316	27729	33181	32905	
2652	0	25080	26464	32184	32863	32736	
2653	0	24371	26223	33850	33169	32671	
2654	0	25165	28050	35399	33001	32873	
2655	0	25474	30569	43015	32762	32917	
2656	0	27611	32041	47090	32717	32979	
2657	0	30139	32709	40855	32581	32705	
2658	0	32996	32263	31843	32638	32670	
2659	0	36139	31751	25928	32775	32793	
2660	0	37691	31544	23713	32888	32939	
2661	0	39362	32323	23750	32542	32979	
2662	0	41320	33368	29339	32535	32879	
2663	0	42296	34784	36726	32415	32925	
2664	0	41114	36394	39559	32426	32919	
2665	0	38916	37842	35169	32349	32882	
2666	0	36194	38759	33695	32322	32886	
2667	0	34823	38471	37124	32519	32699	
2668	0	32857	38016	44143	32624	32696	
2669	0	30241	36653	47290	32921	32789	
2670	0	27544	34710	45093	33132	32831	
2671	0	26439	32084	37536	33055	32898	
2672	0	26608	29119	27236	33356	32966	
2673	0	26752	27069	12706	33712	32920	
2674	0	27600	26159	3155	33991	32903	
2675	0	29116	26988	10175	33672	32933	
2676	0	31504	29301	25427	32713	32921	
2677	0	34974	31174	36151	32217	32950	
2678	0	37319	32615	40290	32237	32989	
2679	0	38117	32395	41382	32603	32837	
2680	0	38322	31851	44623	32807	32884	
2681	0	37440	31605	46163	32881	32899	
2682	0	36464	32065	43967	32734	32775	
2683	0	34724	33001	39250	32555	32732	
2684	0	34021	33540	33331	32469	32915	
2685	0	34594	34162	25057	32534	32967	
2686	0	34124	35490	21259	32357	32947	
2687	0	33067	36676	26111	32722	32917	
2688	0	30203	36402	30309	32787	32839	
2689	0	26936	34619	29598	33264	32711	
2690	0	23869	32973	30138	33334	32704	
2691	0	23766	32283	35186	33154	32667	
2692	0	25629	31859	37179	32851	32793	
2693	0	29211	32129	37877	32747	33035	
2694	0	32114	32928	38271	32531	32931	
2695	0	34972	34013	37005	32507	32882	
2696	0	37586	33678	31773	32288	32727	
2697	0	37550	32013	26055	32793	32813	
2698	0	37216	30192	26894	33932	32960	
2699	0	35746	28464	31026	33159	32845	
2700	0	33886	28079	31335	32708	32711	
2701	0	32096	28478	32346	32708	32770	
2702	0	31337	29976	36546	32663	32955	
2703	0	31423	31675	36127	32349	33010	
2704	0	31175	33059	34149	32171	32903	
2705	0	30157	34277	32409	32224	32647	
2706	0	28474	35009	30383	32276	32730	
2707	0	28454	35581	26402	32455	32920	
2708	0	29321	37259	26841	32449	32903	
2709	0	31872	39082	32234	32496	32843	
2710	0	33875	38810	38549	32393	32663	
2711	0	35572	36556	41590	32619	32787	
2712	0	38360	32952	40318	32683	32976	
2713	0	39065	29675	37762	33216	32985	
2714	0	37584	28174	32297	33887	32979	
2715	0	36399	28487	28842	34237	32920	
2716	0	35753	29015	25831	33613	32726	
2717	0	35929	29127	23872	33214	32696	
2718	0	35401	28743	29462	33461	32799	
2719	0	34631	28812	38227	32874	32962	
2720	0	34652	29844	44466	32422	32920	
2721	0	34131	31669	43741	32628	32993	
2722	0	30784	32831	34699	32466	33029	
2723	0	27980	33799	28859	32508	32944	
2724	0	27094	35075	26793	32519	32704	
2725	0	26418	35824	32487	32462	32827	
2726	0	26980	35622	36247	32173	32990	
2727	0	28464	35826	25878	32277	33012	
2728	0	30224	36856	13852	32420	32760	
2729	0	31060	37895	15876	33117	32666	
2730	0	31214	38857	27137	33080	32684	
2731	0	31198	38304	35762	32170	32906	
2732	0	31511	36803	40034	32443	32928	
2733	0	32322	34034	38555	33362	32949	
2734	0	33910	31484	39251	33345	32967	
2735	0	36305	30264	42555	33215	32744	
2736	0	38613	29358	42834	33091	32698	
2737	0	39384	28156	40711	32928	32902	
2738	0	39077	26759	38481	32908	32950	
2739	0	37165	25512	31068	32952	32765	
2740	0	34320	26162	25685	32773	32733	
2741	0	32221	28228	26450	32385	32922	
2742	0	30675	30951	27286	32613	33004	
2743	0	30520	34011	26879	32654	32963	
2744	0	31232	35994	25047	32807	32984	
2745	0	32861	37202	28488	32611	32999	
2746	0	34665	36782	35707	32754	32964	
2747	0	36410	34695	42109	32933	32808	
2748	0	37600	32619	48073	32878	32725	
2749	0	37850	30786	52478	33125	32864	
2750	0	35041	29175	50272	33125	32967	
2751	0	31056	28915	41535	33204	32949	
2752	0	27600	29548	25294	33043	32864	
2753	0	25404	30778	18432	32718	32690	
2754	0	24160	32272	11974	32546	32674	
2755	0	22578	33740	11409	32184	32645	
2756	0	22350	34439	19962	32501	32713	
2757	0	24071	34951	24942	33053	32871	
2758	0	27112	34519	27635	32871	32949	
2759	0	32314	34579	33084	31967	32993	
2760	0	38990	34246	38318	31830	32903	
2761	0	43592	33607	41562	32576	32915	
2762	0	45859	33197	39298	33216	32743	
2763	0	45292	33155	37511	33159	32816	
2764	0	43396	33750	35405	32865	32915	
2765	0	41179	34192	34214	32709	32907	
2766	0	38480	34983	29698	32570	32993	
2767	0	36003	35131	27357	32461	32938	
2768	0	33740	34557	30122	32610	32871	
2769	0	31312	33228	36272	32724	32706	
2770	0	27586	31984	40594	32948	32912	
2771	0	24109	30399	40632	32876	32951	
2772	0	23334	28865	40035	32733	32759	
2773	0	23019	28739	40087	32638	32791	
2774	0	23286	29359	40786	32454	32985	
2775	0	23241	30951	39355	32995	32959	
2776	0	22937	32954	41439	33841	32753	
2777	0	23604	34458	41577	33344	32728	
2778	0	26602	34920	32440	33544	32763	
2779	0	31759	34792	22576	33456	32953	
2780	0	38407	35240	16506	32528	32884	
2781	0	44508	35637	12001	32263	32807	
2782	0	48446	34370	10257	32704	32844	
2783	0	48634	32048	16634	32330	33003	
2784	0	43512	30772	27182	32813	32769	
2785	0	38170	31435	33031	32920	32875	
2786	0	35010	32787	36179	33001	32977	
2787	0	32907	33799	38375	33423	32850	
2788	0	32064	33391	39623	33330	32723	
2789	0	31374	33089	43488	33250	32737	
2790	0	29467	31861	44239	33275	32647	
2791	0	27737	31541	40580	33076	32619	
2792	0	26116	32908	32261	33057	32657	
2793	0	25656	33698	27914	32839	32690	
2794	0	25629	34448	28603	32397	32886	
2795	0	26208	33951	30350	31346	32898	
2796	0	29164	33254	32375	30853	32717	
2797	0	33918	31968	33668	31584	32803	
2798	0	38792	30377	36105	32325	32970	
2799	0	41534	29136	40713	32997	32750	
2800	0	42255	28224	42025	33808	32756	
2801	0	40856	27237	43426	34166	32745	
2802	0	36267	27091	42570	33333	32689	
2803	0	31720	27222	32233	32012	32750	
2804	0	28104	28403	24365	32156	32723	
2805	0	26138	31297	24517	32790	32690	
2806	0	25720	34183	21086	32646	32978	
2807	0	27192	36082	18818	33079	33053	
2808	0	30783	37343	20963	32717	32741	
2809	0	33813	37996	26337	32414	33051	
2810	0	35885	37661	33053	32397	33002	
2811	0	36609	37104	37741	32573	32861	
2812	0	35536	36461	40527	32785	32726	
2813	0	34418	34759	42706	33081	32704	
2814	0	33183	32952	47088	33187	32672	
2815	0	31551	31040	49223	33157	32701	
2816	0	29554	30032	48327	33057	32648	
2817	0	27320	30031	45180	32725	32749	
2818	0	26962	30921	34298	32414	32903	
2819	0	28060	32964	17725	32410	32957	
2820	0	27916	35184	4677	32564	32848	
2821	0	27136	36042	7626	32717	32709	
2822	0	28005	36154	18526	33344	32694	
2823	0	29620	35424	28274	33287	32809	
2824	0	31577	34295	32327	32936	32997	
2825	0	34456	33458	33735	32909	32965	
2826	0	39328	32162	34893	32726	32900	
2827	0	42503	31152	39716	32724	32758	
2828	0	43328	30610	44580	32891	32727	
2829	0	43376	30096	47026	32583	32798	
2830	0	41327	30531	42694	32745	32828	
2831	0	38740	31525	33007	32608	32728	
2832	0	36992	33038	24018	32416	32874	
2833	0	35371	33412	19936	32685	32905	
2834	0	33922	32752	22098	32755	32845	
2835	0	35016	31222	30465	33005	32706	
2836	0	35293	30303	35114	33110	32751	
2837	0	33544	29851	34091	32883	32916	
2838	0	30550	30459	35201	32542	32935	
2839	0	28440	31867	38586	32391	32975	
2840	0	27248	32828	41177	32434	32846	
2841	0	27754	32998	38593	32698	32669	
2842	0	29086	32937	34351	33571	32717	
2843	0	29883	32177	33782	33615	32715	
2844	0	29778	32033	37120	32809	32786	
2845	0	28704	32720	43200	32929	32923	
2846	0	27760	33663	46838	33230	32966	
2847	0	26673	34615	46681	33021	32891	
2848	0	26172	35316	36006	32649	32963	
2849	0	26643	36488	19137	32337	32960	
2850	0	27882	36382	4791	32504	32852	
2851	0	29427	35411	4755	32153	32723	
2852	0	31385	34408	14150	32448	32728	
2853	0	34898	32366	25446	33381	32707	
2854	0	37538	30982	32150	33632	32766	
2855	0	38218	30914	34395	33815	32738	
2856	0	39770	31682	35873	33496	32733	
2857	0	41581	31880	38189	33272	32910	
2858	0	43224	32119	39844	32603	32818	
2859	0	44013	31692	43207	31869	32809	
2860	0	42824	31831	47571	32075	32946	
2861	0	39382	32293	46496	31932	32937	
2862	0	34747	32825	45570	31751	33001	
2863	0	30077	32572	41307	32533	32883	
2864	0	26019	32592	30868	32668	32797	
2865	0	23304	33299	18878	32288	32704	
2866	0	22489	34674	13971	32307	32668	
2867	0	22889	36002	23001	32386	32775	
2868	0	25802	36567	26178	33219	32935	
2869	0	29717	35207	25577	33637	32973	
2870	0	32758	32720	28591	33380	32986	
2871	0	35835	29232	33596	33229	32831	
2872	0	38252	26712	36546	33267	32789	
2873	0	39145	25775	38219	33039	32688	
2874	0	38441	26743	38919	32575	32910	
2875	0	36831	27981	40311	32487	32978	
2876	0	34781	30233	39387	32382	32739	
2877	0	33510	32113	37111	32624	32639	
2878	0	31766	33435	32563	32884	32818	
2879	0	30012	34395	29511	32855	32896	
2880	0	27841	34985	30173	33044	32871	
2881	0	26480	36416	35115	32869	32980	
2882	0	25860	36743	35777	32595	32967	
2883	0	26384	35911	35111	32564	32899	
2884	0	27248	34861	35192	32421	32832	
2885	0	28216	32495	37623	32641	32739	
2886	0	30382	29807	39898	32957	32730	
2887	0	32055	28903	39652	33013	32903	
2888	0	33411	29139	32843	33273	33001	
2889	0	35720	30578	21710	33851	32902	
2890	0	38456	33077	15175	33296	32675	
2891	0	39597	35357	19119	33030	32799	
2892	0	39765	36622	23477	32583	32886	
2893	0	39776	36481	28572	32564	32917	
2894	0	39552	35770	34494	31805	32801	
2895	0	38330	34759	38437	31913	32721	
2896	0	36880	33817	38983	32159	32794	
2897	0	35114	33057	41462	32421	32809	
2898	0	33442	32421	39558	32367	32959	
2899	0	30390	32146	32455	32425	32888	
2900	0	27817	31930	29294	32588	32745	
2901	0	25917	31414	32135	32980	32853	
2902	0	25184	31349	31734	33459	33005	
2903	0	25184	30979	31581	33686	32800	
2904	0	25280	30570	35644	33338	32711	
2905	0	28009	29889	36035	32854	32955	
2906	0	31704	30618	33922	32646	32955	
2907	0	35368	32590	28973	32573	32754	
2908	0	37100	33833	25041	33021	32772	
2909	0	37730	34271	23458	33093	32707	
2910	0	38257	33626	28272	32869	32823	
2911	0	38139	33287	32199	32562	32931	
2912	0	37328	33639	35803	32360	32959	
2913	0	36856	34503	39062	31943	32869	
2914	0	36322	35433	40515	32123	32719	
2915	0	36732	34950	38552	33782	32879	
2916	0	36914	33423	36345	34680	32903	
2917	0	37084	31879	35975	34211	32972	
2918	0	35707	30906	35645	32263	32915	
2919	0	34531	30670	35441	31331	32711	
2920	0	33033	30176	30100	31977	32939	
2921	0	31352	29784	25178	33381	32891	
2922	0	30056	30014	26356	33443	32763	
2923	0	28904	30951	31255	33006	32726	
2924	0	28440	32107	33913	32551	32921	
2925	0	27632	32967	32869	32495	33010	
2926	0	26437	34055	32150	32339	32918	
2927	0	25198	34572	35731	32844	32746	
2928	0	24481	34324	39567	32967	32795	
2929	0	24740	34247	32880	32659	32895	
2930	0	26401	34175	34520	32544	32960	
2931	0	28976	34242	40402	32659	32947	
2932	0	32076	34550	42357	32711	32857	
2933	0	34821	34633	38034	32699	32853	
2934	0	36468	33970	26396	32497	32692	
2935	0	36678	33193	18771	32516	32736	
2936	0	37328	32489	15672	32989	32775	
2937	0	38385	31421	19625	33003	32933	
2938	0	38493	30109	24635	32873	32982	
2939	0	36684	29464	28429	32711	33014	
2940	0	34368	29767	31025	32301	32963	
2941	0	31773	31273	32347	32263	32734	
2942	0	30372	33268	33678	32404	32730	
2943	0	31184	35060	35278	33861	32898	
2944	0	32759	36236	38258	34117	32944	
2945	0	34668	36463	41851	33454	32905	
2946	0	37172	35680	45824	33035	32792	
2947	0	37830	33695	46343	32910	32758	
2948	0	37216	31145	43609	32789	32839	
2949	0	35587	28230	38232	32534	32980	
2950	0	33108	26939	29727	32775	32862	
2951	0	30780	27846	22678	32952	32697	
2952	0	29728	29912	20468	32877	32907	
2953	0	29385	32374	21177	32484	32815	
2954	0	29364	34426	27328	32592	32742	
2955	0	29816	36308	34515	32574	32644	
2956	0	30040	37122	38822	32676	32762	
2957	0	30483	37293	39378	32765	32941	
2958	0	31790	35254	36818	32845	32933	
2959	0	32760	32309	32348	33137	32860	
2960	0	33570	29502	28621	33075	32694	
2961	0	33906	28295	31217	32775	32763	
2962	0	33702	28571	32399	32163	32763	
2963	0	33287	29703	32936	31990	32751	
2964	0	32366	30553	33991	32231	32913	
2965	0	31312	31026	35220	32805	32759	
2966	0	30951	31339	34667	33554	32919	
2967	0	29920	32641	32963	32792	32686	
2968	0	30064	34310	37023	32384	32877	
2969	0	29437	35740	40030	32898	32685	
2970	0	29800	36242	39981	33373	32747	
2971	0	33842	36218	36580	33545	32767	
2972	0	38456	35214	32511	33353	32896	
2973	0	39156	33974	29348	32662	32996	
2974	0	38032	33099	26556	32744	32973	
2975	0	36359	32663	26991	32767	32877	
2976	0	34232	32373	31017	32815	32861	
2977	0	32116	32365	31751	32815	32699	
2978	0	31181	32007	30967	32818	32731	
2979	0	31950	32111	28457	32868	32775	
2980	0	32280	32404	26977	32507	32757	
2981	0	31842	32746	26376	32368	32841	
2982	0	30266	32936	19101	32502	32714	
2983	0	28017	33406	16985	32800	32979	
2984	0	26022	33680	29400	32248	32877	
2985	0	25828	33881	41650	31591	32709	
2986	0	27830	34167	44003	32297	32889	
2987	0	30688	33167	39542	32607	32987	
2988	0	34620	32048	32300	33081	32880	
2989	0	38592	30588	26977	33193	32989	
2990	0	40931	30147	27029	33389	32993	
2991	0	41084	30342	31969	33253	32983	
2992	0	39469	31498	32775	32967	32845	
2993	0	37373	32160	36291	32469	32921	
2994	0	36736	32381	40636	32973	32941	
2995	0	35724	32735	40695	32761	32973	
2996	0	34940	33119	39670	32287	32976	
2997	0	36010	33527	39760	31866	32767	
2998	0	36630	33693	40064	31837	32858	
2999	0	36527	33176	42093	32572	32774	
3000	0	35552	32439	43287	32570	32748	
3001	0	32471	31719	42146	32263	32744	
3002	0	29264	30808	37842	32963	32775	
3003	0	27292	31303	34119	33655	33083	
3004	0	25990	32034	25161	33825	32904	
3005	0	25680	32744	11590	34068	32955	
3006	0	25034	34378	6518	34360	32896	
3007	0	25028	34678	12406	33827	32807	
3008	0	25376	35080	25577	32999	32746	
3009	0	26469	34461	31887	32577	32876	
3010	0	29040	34135	36015	32334	32869	
3011	0	33958	33330	39248	32356	32926	
3012	0	39167	32226	41475	32348	33017	
3013	0	42887	31559	42006	32667	32936	
3014	0	43219	31495	39913	33439	32903	
3015	0	41664	31552	33813	33095	32845	
3016	0	38428	31553	28288	32159	32713	
3017	0	33928	31632	29995	32775	32717	
3018	0	30670	32294	32481	32223	32857	
3019	0	29730	33548	34176	32250	32981	
3020	0	29698	34884	34570	32325	32915	
3021	0	31138	35079	33851	32301	32919	
3022	0	31515	34919	34655	32315	32964	
3023	0	31395	33607	37638	32361	32996	
3024	0	31081	32811	37270	32606	32775	
3025	0	30656	32557	36629	33612	32815	
3026	0	29396	32425	33918	33261	32704	
3027	0	28605	32735	31785	33387	32906	
3028	0	28466	32114	27272	33556	32978	
3029	0	29216	31259	25754	33478	33007	
3030	0	29961	29983	27623	33159	32865	
3031	0	30232	28690	29624	32818	32732	
3032	0	32578	27495	31175	32739	32676	
3033	0	34853	27823	31175	32484	32805	
3034	0	36427	29341	31121	32447	32939	
3035	0	37752	31273	33203	32551	32895	
3036	0	37583	32888	36141	32502	32903	
3037	0	36352	34167	37944	32301	32747	
3038	0	33577	35809	39174	32297	32759	
3039	0	29895	36683	37849	32669	32873	
3040	0	27997	36806	35013	32882	32923	
3041	0	27500	36427	30869	33193	32909	
3042	0	28937	35655	28603	32743	32903	
3043	0	32557	34011	27080	32452	33013	
3044	0	36220	32728	28131	32555	32923	
3045	0	39090	31954	28705	32658	32883	
3046	0	40048	31723	31589	32339	32757	
3047	0	39440	31819	36756	32256	32714	
3048	0	37293	31949	38285	32875	32877	
3049	0	33456	32228	36530	33875	32928	
3050	0	30412	32979	37095	33307	32775	
3051	0	28826	33706	35931	32877	32813	
3052	0	28598	35026	28203	32876	32965	
3053	0	29673	35987	26208	32808	32825	
3054	0	31015	36146	25396	33223	32690	
3055	0	32408	34139	25648	33043	32857	
3056	0	33852	31528	28515	33490	32932	
3057	0	34504	29369	34265	32815	32909	
3058	0	34141	28406	38043	32227	32863	
3059	0	35106	28560	34557	32239	32750	
3060	0	35320	29469	31437	32715	33009	
3061	0	35899	30794	27890	32463	32926	
3062	0	35805	32825	27290	32289	32935	
3063	0	34036	34370	33726	32824	32914	
3064	0	31677	34621	37359	33341	32933	
3065	0	30456	33684	40087	33336	32793	
3066	0	28578	32398	40275	33242	32699	
3067	0	27318	31735	41430	32759	32671	
3068	0	26868	32082	41363	32050	32671	
3069	0	26909	33349	39721	31750	32623	
3070	0	27047	33637	39747	31939	32745	
3071	0	28812	33961	38207	32279	32745	
3072	0	31751	34277	34311	32358	32775	
3073	0	34802	34464	22682	32620	32994	
3074	0	35792	33979	10030	32794	32957	
3075	0	34715	33638	13480	33053	32800	
3076	0	33376	32957	26490	33218	32795	
3077	0	32170	32797	38268	33025	33017	
3078	0	33097	32581	44848	33208	32908	
3079	0	35672	32333	45047	33151	32770	
3080	0	38377	31874	35478	32962	32750	
3081	0	39512	31232	24551	32960	32736	
3082	0	39376	31107	17870	32964	32684	
3083	0	38489	31665	19243	33044	32957	
3084	0	36098	32730	28913	32649	32764	
3085	0	33049	33933	38835	32514	32787	
3086	0	31550	34053	41968	32605	33029	
3087	0	31368	32583	44082	32827	32993	
3088	0	31180	31373	44015	33105	32873	
3089	0	30848	30501	42082	32632	32755	
3090	0	30201	30403	41312	32699	32757	
3091	0	29901	30322	39202	33019	32853	
3092	0	28240	30777	30745	32824	32898	
3093	0	25386	32089	25250	32683	32737	
3094	0	23728	33987	22023	32687	32736	
3095	0	24012	34900	15867	32841	32764	
3096	0	26178	35135	13985	32839	32850	
3097	0	31001	34498	20484	32739	33028	
3098	0	36784	33872	28689	33042	32961	
3099	0	41249	32690	33366	32967	32966	
3100	0	43378	32089	36359	32646	32960	
3101	0	43049	31411	37333	32557	33020	
3102	0	41172	31175	37555	32653	33032	
3103	0	37722	32044	38919	32773	32824	
3104	0	34822	33568	40527	32756	32767	
3105	0	32041	34339	42478	32805	32725	
3106	0	29370	33619	43330	32895	32686	
3107	0	29180	32263	42770	32992	32694	
3108	0	29895	30825	40583	33137	32773	
3109	0	31120	29862	39635	32935	32729	
3110	0	32836	30261	33596	32768	32839	
3111	0	32976	32003	24388	32617	32966	
3112	0	31640	33467	18206	32775	32902	
3113	0	30111	33687	21079	32801	32850	
3114	0	29164	33140	28576	32795	32703	
3115	0	28506	32754	34191	32962	32765	
3116	0	28068	32898	37543	33015	32973	
3117	0	27986	32997	38735	33060	32850	
3118	0	30128	32463	38339	32987	32726	
3119	0	33534	31989	36314	32847	32775	
3120	0	37501	32035	35248	32915	32915	
3121	0	40058	32078	31137	33082	33044	
3122	0	41304	31955	30103	33115	32882	
3123	0	40636	32423	28659	32566	32722	
3124	0	37671	33058	30310	32114	32923	
3125	0	34660	33222	31334	31511	32987	
3126	0	32226	33746	30866	31717	32775	
3127	0	31111	34471	27283	31717	32655	
3128	0	30757	35123	27467	32386	32819	
3129	0	30819	35802	26962	32912	32831	
3130	0	29903	35220	25334	33159	32915	
3131	0	29377	34208	28809	33664	32773	
3132	0	29282	32751	37809	33266	32764	
3133	0	28673	31977	45715	33003	32904	
3134	0	28309	32301	46690	33125	32980	
3135	0	27942	32465	43741	33051	32862	
3136	0	27756	31811	40889	32999	32691	
3137	0	29855	31397	36691	32997	32850	
3138	0	33351	31426	25056	33277	32976	
3139	0	36452	32016	17170	32902	32818	
3140	0	38536	33048	17471	32481	32887	
3141	0	40425	33988	25185	32324	32818	
3142	0	41448	34360	34004	32999	32775	
3143	0	39728	33691	38727	33014	32919	
3144	0	35802	32774	34520	33549	32809	
3145	0	32082	32249	30599	33095	32718	
3146	0	29012	32263	33895	32105	32890	
3147	0	27823	31588	35035	32545	32963	
3148	0	28632	31195	38336	32789	32720	
3149	0	30035	30236	36883	32238	33021	
3150	0	30373	30456	28960	32112	32809	
3151	0	30358	31255	19816	31950	32784	
3152	0	29290	32007	19075	32455	33025	
3153	0	29245	32963	27633	32983	32815	
3154	0	30284	33593	34120	32849	32765	
3155	0	33754	33437	36827	32818	32761	
3156	0	36281	32639	32611	32760	32925	
3157	0	35401	31951	32537	32914	32958	
3158	0	32828	32017	37413	33237	32720	
3159	0	30433	32459	40391	33056	32716	
3160	0	28768	33376	44290	32775	33004	
3161	0	30656	33536	47936	33503	32884	
3162	0	35539	33280	45235	33755	32717	
3163	0	40500	32293	42433	33342	32661	
3164	0	44096	31732	43824	33382	32790	
3165	0	44952	32680	40691	33218	32766	
3166	0	43512	33825	32156	32978	32857	
3167	0	40485	34503	26246	32857	33002	
3168	0	35118	34291	21964	32565	32893	
3169	0	30132	33744	18276	32853	32704	
3170	0	26252	32898	12860	32527	32824	
