# OpenSignals Text File Format
# {"00:07:80:3B:46:63": {"sensor": ["EMG", "EMG", "EMG", "EMG", "EMG"], "device name": "00:07:80:3B:46:63", "column": ["nSeq", "DI", "CH1", "CH2", "CH3", "CH4", "CH5"], "sync interval": 2, "time": "10:53:23.859", "comments": "", "device connection": "BTH00:07:80:3B:46:63", "channels": [1, 2, 3, 4, 5], "date": "2017-4-28", "mode": 0, "digital IO": [0, 1], "firmware version": 770, "device": "biosignalsplux", "position": 0, "sampling rate": 1000, "label": ["CH1", "CH2", "CH3", "CH4", "CH5"], "resolution": [16, 16, 16, 16, 16], "special": [{}, {}, {}, {}, {}]}}
# EndOfHeader
0	0	31086	32879	45491	32799	32615	
1	0	30585	32763	40920	32809	32775	
2	0	29812	32415	39367	32775	32763	
3	0	30851	32574	40923	32772	32825	
4	0	33457	32701	43714	32708	32775	
5	0	36252	32839	37012	32713	32731	
6	0	37272	32679	24137	32708	32925	
7	0	36386	32599	20653	32547	32867	
8	0	34068	32577	25804	32676	32805	
9	0	31809	32731	29423	32736	32973	
10	0	31177	32805	26631	32839	33056	
11	0	32088	32603	26375	32793	32799	
12	0	32504	32707	24294	32785	32775	
13	0	32889	32847	23174	32720	32715	
14	0	32744	32748	30197	32595	32829	
15	0	32464	32468	36572	32581	32960	
16	0	32534	32568	41978	32812	32952	
17	0	32469	32613	46919	32869	32770	
18	0	32620	32519	48617	32914	32786	
19	0	32579	32435	44584	32877	32706	
20	0	32492	32370	31154	32781	32730	
21	0	32932	32256	12240	33019	32796	
22	0	33472	32359	9884	33047	32775	
23	0	33448	32467	21885	32911	32717	
24	0	32732	32655	31593	32860	32861	
25	0	33256	32583	33647	32799	32951	
26	0	33480	32995	34642	32681	33007	
27	0	32955	33117	40935	32667	32872	
28	0	32647	32918	45299	32709	32833	
29	0	32390	33129	43479	32635	32899	
30	0	31780	33055	36999	32746	32797	
31	0	30461	32966	28371	32968	32744	
32	0	30740	33111	23789	33040	32955	
33	0	31173	33011	25539	32995	32809	
34	0	31207	32658	37343	32918	33028	
35	0	32496	32421	43262	32807	32914	
36	0	33940	31943	42435	32807	32710	
37	0	33546	31867	38983	32706	32803	
38	0	32912	31747	36850	32702	32679	
39	0	32481	31938	31281	32798	32833	
40	0	32924	31949	18397	32730	32800	
41	0	33144	32433	16794	32935	32855	
42	0	33588	32809	21890	32907	32896	
43	0	34457	33107	27285	32775	32759	
44	0	35428	33617	32614	32646	32741	
45	0	36392	33877	38495	32592	32930	
46	0	36666	33715	40662	32578	32839	
47	0	35502	33279	37622	32579	32765	
48	0	33944	32919	33483	32679	32882	
49	0	31557	32574	32051	32871	32741	
50	0	29224	32028	36770	32882	32726	
51	0	28804	31622	48208	32898	32691	
52	0	29416	31434	52634	32917	32916	
53	0	30030	31647	47453	33011	32915	
54	0	31418	31940	36304	32882	32871	
55	0	32792	32434	17720	32902	32684	
56	0	34194	32667	4850	32730	32737	
57	0	33570	32941	9536	32717	32623	
58	0	32803	32903	19189	32767	32557	
59	0	31888	32829	27655	32718	32937	
60	0	31160	33028	37662	32701	32953	
61	0	30950	33181	48032	32845	32989	
62	0	30784	33218	51309	32816	33062	
63	0	31617	33167	47222	32745	32755	
64	0	32740	33155	39256	32819	32704	
65	0	33986	32912	31359	32824	32716	
66	0	34624	33018	19760	32500	32772	
67	0	34592	32750	6746	32746	32697	
68	0	34183	32311	10587	32775	32687	
69	0	33398	32500	22879	32916	32761	
70	0	32498	32488	33242	32827	32792	
71	0	31776	32374	38018	32728	32770	
72	0	30431	32461	41991	32681	32805	
73	0	31292	32720	46770	32671	32839	
74	0	33143	32799	46727	32673	32604	
75	0	34998	32731	42487	32723	32565	
76	0	35162	32696	37315	32704	32745	
77	0	35167	32595	34271	32855	32973	
78	0	35077	32500	31751	32861	32941	
79	0	35462	32536	29894	32839	32853	
80	0	34514	32263	22892	32898	32850	
81	0	32630	32420	17381	32893	32760	
82	0	31518	32687	22734	32909	32886	
83	0	31051	32775	32903	32802	32872	
84	0	30880	32482	40387	32815	32765	
85	0	32065	32325	41831	32805	32822	
86	0	31780	32263	38802	32835	32801	
87	0	31969	32251	36658	32809	32986	
88	0	32888	32639	37394	32690	32882	
89	0	34958	32639	37498	32729	32918	
90	0	37684	32915	35801	32741	32964	
91	0	39572	32843	30161	32614	32899	
92	0	39716	32743	31717	32742	32755	
93	0	38487	32603	34950	32827	32941	
94	0	35448	32652	34489	32851	32914	
95	0	32801	32637	31407	32967	32757	
96	0	29289	32632	25808	32952	33082	
97	0	25706	32693	25029	32898	32993	
98	0	24321	32873	22416	32655	32467	
99	0	25872	32868	27973	32821	32580	
100	0	28418	32930	32603	32847	32931	
101	0	29672	33119	35444	32819	32666	
102	0	29213	33249	39303	32839	32922	
103	0	28626	33399	39087	32775	32849	
104	0	28715	33240	35143	32775	32711	
105	0	29544	33305	30249	32716	33003	
106	0	29725	33095	28401	32610	32976	
107	0	30699	32927	28923	32775	32685	
108	0	33746	32568	32944	32806	32775	
109	0	38474	32118	34271	32903	32677	
110	0	42482	31453	32833	32921	33047	
111	0	43802	30955	32508	32975	32748	
112	0	42152	30843	35472	32907	32749	
113	0	39477	31194	38877	32813	32905	
114	0	36422	31546	35014	32821	32989	
115	0	34310	32059	30915	32918	32882	
116	0	32569	32613	30443	32909	32879	
117	0	31544	32967	29894	32704	32759	
118	0	30423	33184	31965	32656	32707	
119	0	29376	33189	38695	32734	32729	
120	0	28512	33195	43874	32708	32880	
121	0	27884	33135	43335	32845	32909	
122	0	27674	32930	29986	32841	32941	
123	0	27412	32765	17144	32821	32801	
124	0	28002	33049	24699	32708	32817	
125	0	29128	33033	34752	32728	32730	
126	0	31024	32967	39568	32746	32784	
127	0	32686	32848	41109	32775	32876	
128	0	32744	32569	39702	32698	32828	
129	0	32771	32505	35355	32739	32876	
130	0	33443	32728	25810	32805	32977	
131	0	33380	32751	18720	32720	32997	
132	0	32867	32805	26215	32681	33008	
133	0	31776	32663	35326	32775	32913	
134	0	30279	32624	35553	32861	32835	
135	0	29861	32797	33378	32759	32739	
136	0	31813	33186	31719	32771	32825	
137	0	35020	33307	32630	32775	32831	
138	0	37029	33116	37161	32751	32711	
139	0	37056	32887	35296	32749	32687	
140	0	36800	32583	31469	32823	32795	
141	0	36537	32547	31431	32909	32773	
142	0	36264	32386	23381	32863	32952	
143	0	35518	32421	17003	32805	32822	
144	0	36025	32636	13704	32947	32924	
145	0	34429	32742	17878	32939	33008	
146	0	33020	32933	29473	32823	32943	
147	0	32040	32997	38310	32882	32930	
148	0	31517	32502	43822	32967	32934	
149	0	31560	32865	48215	32937	32746	
150	0	31217	32898	49249	32962	32722	
151	0	30344	32635	44704	32835	32902	
152	0	30117	32358	33515	32775	32997	
153	0	31265	32279	32263	32807	32980	
154	0	31528	32011	38226	32717	32967	
155	0	30160	31901	40399	32663	32935	
156	0	29072	31891	37653	32659	32885	
157	0	29136	32327	38215	32669	32887	
158	0	30836	32711	37863	32707	32831	
159	0	32846	32744	27984	32859	32734	
160	0	34536	32685	9517	32900	32705	
161	0	36008	32891	13102	32775	32717	
162	0	36950	32863	24093	32775	32826	
163	0	36487	32765	28879	32813	32883	
164	0	35816	32617	30226	32699	32799	
165	0	34521	32582	36198	32598	32748	
166	0	33204	32466	38294	32722	32963	
167	0	32092	32429	32379	32772	32871	
168	0	31553	32755	28705	32705	32727	
169	0	31032	32998	34179	32743	32968	
170	0	31032	33234	40480	32689	32967	
171	0	31783	33154	40257	32839	32850	
172	0	34100	32813	37178	32964	32632	
173	0	36824	32459	35271	32985	32787	
174	0	38668	32455	35699	32920	32813	
175	0	38268	32395	38087	32881	32809	
176	0	36432	32420	40931	32846	33042	
177	0	34733	32495	37927	32818	32872	
178	0	33520	32651	29952	32805	32872	
179	0	31196	32809	25031	32943	32941	
180	0	29717	33102	23293	33049	32807	
181	0	28534	33471	25874	32747	32669	
182	0	27414	33702	33565	32733	32916	
183	0	27723	33479	38873	32685	32719	
184	0	29684	33222	40504	32655	32861	
185	0	31614	32787	37383	32661	33055	
186	0	32056	32613	33611	32855	33029	
187	0	31570	32477	31721	32839	32963	
188	0	30430	32301	34484	32775	32839	
189	0	29934	31899	37827	32813	32723	
190	0	30400	32114	35417	32825	32925	
191	0	31367	32164	28717	32880	32940	
192	0	33094	32029	24082	32913	32997	
193	0	35869	32131	24003	32943	32939	
194	0	37620	32172	20637	32672	32824	
195	0	37616	32430	16848	32487	32768	
196	0	36512	32410	20975	32837	32695	
197	0	33606	32582	30240	32800	32680	
198	0	30044	32484	38325	32753	32753	
199	0	27704	32411	41237	32925	32889	
200	0	28797	32704	43815	32856	32870	
201	0	32718	32523	43134	32726	32891	
202	0	36769	32653	39652	32693	32851	
203	0	38854	32670	33562	32765	32775	
204	0	38528	32911	30327	32674	32719	
205	0	35481	33081	34414	32555	32995	
206	0	32153	33503	40393	32528	32906	
207	0	29428	33695	39650	32628	32760	
208	0	27884	33380	27902	32690	32736	
209	0	26871	32994	19376	32792	32807	
210	0	25804	32364	27366	32587	33037	
211	0	24320	31836	33039	32656	32888	
212	0	23734	31809	31813	32415	32767	
213	0	24777	32145	32660	32495	32704	
214	0	27172	32309	32007	32733	32748	
215	0	32012	32551	28685	32822	32690	
216	0	39453	32916	32178	32784	32760	
217	0	46362	33222	38528	32775	32941	
218	0	51152	33061	40648	32824	33020	
219	0	51168	33002	41932	32813	32775	
220	0	46332	33008	44031	32763	32659	
221	0	40224	32957	39403	32775	32733	
222	0	36284	32931	29253	32848	32855	
223	0	34427	32893	23721	32869	32955	
224	0	32740	32541	27587	32691	33017	
225	0	30786	31825	28835	32819	32879	
226	0	28503	31731	27809	32829	32861	
227	0	26011	31965	30272	32903	32916	
228	0	24381	32368	33197	32797	32769	
229	0	25186	32703	34774	32802	32653	
230	0	27258	32873	34881	32775	32771	
231	0	29572	33055	30420	32683	32921	
232	0	31640	33178	30151	32658	32871	
233	0	33015	33222	30326	32818	32787	
234	0	33508	33336	31955	32867	32775	
235	0	33633	33273	28551	32811	32749	
236	0	33284	33251	28879	32801	32965	
237	0	30382	33045	35782	32805	33021	
238	0	27790	32904	43029	32738	32979	
239	0	26404	32903	44368	32805	32857	
240	0	26224	32432	39298	32785	32641	
241	0	26784	32274	27758	32832	32662	
242	0	29317	32160	22179	32931	32756	
243	0	32315	32251	25968	32914	32952	
244	0	35500	32437	27410	32822	32967	
245	0	38172	32647	25488	32835	32740	
246	0	39544	32903	24218	32835	32711	
247	0	38591	33099	27531	32813	32869	
248	0	36618	33053	31220	32743	32874	
249	0	35736	33225	36392	32775	33051	
250	0	35596	33351	40764	32801	33033	
251	0	35771	33126	42529	32843	32939	
252	0	35711	32615	41863	32921	32995	
253	0	34634	32085	38501	32839	32730	
254	0	33757	31745	34994	32861	32647	
255	0	33092	31593	34866	32717	32889	
256	0	31722	31667	39846	32865	32936	
257	0	30006	31942	42080	32894	32883	
258	0	30502	32334	40717	32824	32838	
259	0	30984	32712	31140	32848	32743	
260	0	30518	33097	21902	32823	32709	
261	0	30336	33391	17936	32728	32713	
262	0	30237	33545	28984	32548	32695	
263	0	30805	33472	40921	32768	32880	
264	0	30448	33206	44889	32723	32827	
265	0	29493	32661	37498	32805	32770	
266	0	28472	32134	25716	32835	32812	
267	0	28092	31718	13038	32735	32879	
268	0	30180	31711	14081	32748	32690	
269	0	34978	32072	25780	32832	32833	
270	0	39495	32576	34991	32733	32891	
271	0	42464	32972	38248	32789	32957	
272	0	41307	33559	38166	32723	32943	
273	0	37464	33887	38233	32713	32746	
274	0	33825	34073	38403	32775	32651	
275	0	30083	33712	34866	32887	32667	
276	0	27282	33188	33229	32932	32726	
277	0	25607	32570	32103	33088	32763	
278	0	26208	31849	29703	32958	32874	
279	0	28576	31413	29878	32771	32965	
280	0	31160	31597	27579	32845	32940	
281	0	32961	31949	29145	32884	32967	
282	0	34388	32257	35635	32868	32952	
283	0	35432	32310	41189	32742	32826	
284	0	36368	32323	41701	32713	32918	
285	0	37682	32198	39143	32637	32773	
286	0	38254	32367	36007	32775	32967	
287	0	38269	32327	30082	32839	32771	
288	0	37036	32677	19798	32730	32909	
289	0	35368	33278	14350	32787	32793	
290	0	33682	33735	23618	32930	32654	
291	0	32192	33469	34637	32824	32728	
292	0	31986	33035	40679	32658	32815	
293	0	32617	32935	42259	32763	32887	
294	0	33251	32775	42027	32795	32931	
295	0	33160	32640	41822	32837	33005	
296	0	31990	32647	39939	32767	33000	
297	0	31049	32903	33501	32640	32999	
298	0	29267	33153	29719	32751	32939	
299	0	28004	33232	28770	32765	32855	
300	0	26994	32846	25885	32857	32767	
301	0	27448	32883	34537	32898	32899	
302	0	28568	32620	43360	32908	33011	
303	0	28050	32670	39246	32754	32839	
304	0	28290	32330	24116	32672	32757	
305	0	29356	32489	9430	32763	32729	
306	0	32465	32259	14237	32520	32937	
307	0	36628	31955	24450	32722	32914	
308	0	38646	32192	33524	32793	32686	
309	0	38047	32255	43240	32974	32711	
310	0	35408	32374	43131	32959	32722	
311	0	33473	32629	39431	32943	32983	
312	0	34487	32967	36461	32991	32963	
313	0	37208	33232	36226	32891	32845	
314	0	38702	33192	34845	32905	32767	
315	0	38242	33078	24869	33040	32913	
316	0	36237	32827	24733	32819	32873	
317	0	34372	32535	32246	33014	32741	
318	0	33120	32179	37810	32940	32914	
319	0	33287	31962	44822	32882	32979	
320	0	33444	31667	46350	32914	32827	
321	0	32936	31923	42622	32583	32733	
322	0	32136	32263	33846	32556	32693	
323	0	30645	32548	22331	32624	32738	
324	0	28608	33070	12644	32682	32826	
325	0	26797	33225	13940	32345	32935	
326	0	27320	33720	25256	32646	32869	
327	0	29470	34009	30175	32742	32879	
328	0	31558	33902	36286	32739	32907	
329	0	33622	33287	40967	32843	32853	
330	0	32774	32575	40806	32869	32790	
331	0	29598	32189	37554	32828	33005	
332	0	27521	31727	39111	32756	32889	
333	0	28496	31666	42496	32619	32730	
334	0	31616	31850	44496	32565	32905	
335	0	34290	31980	38971	32556	33014	
336	0	36904	32336	28750	32680	32809	
337	0	37816	32634	25184	32722	32741	
338	0	36882	32801	25805	32795	32705	
339	0	37245	32794	29326	32756	32746	
340	0	37291	32276	32315	32862	32734	
341	0	36094	32079	34899	32847	32823	
342	0	34155	32191	34096	32870	32833	
343	0	32920	32601	33647	32949	32805	
344	0	32694	33253	37611	32893	32797	
345	0	32672	33896	35825	32926	32890	
346	0	31955	33836	28206	32733	32947	
347	0	30448	33639	28159	32630	32855	
348	0	28910	33189	31806	32704	32647	
349	0	27824	32415	33682	32666	32687	
350	0	27448	31805	31527	32637	32717	
351	0	28709	31099	33046	32619	33002	
352	0	30604	31344	37605	32635	32954	
353	0	31692	31506	37566	32711	33003	
354	0	33305	31747	34823	32748	32974	
355	0	35384	31641	23043	32578	32864	
356	0	35096	31796	9455	32624	32750	
357	0	32946	32211	6555	32594	32766	
358	0	32160	32698	14971	32737	32852	
359	0	32818	33081	32288	32832	32921	
360	0	33556	33915	43010	32862	32923	
361	0	35552	34450	44379	32797	32943	
362	0	37949	34740	44891	32795	32730	
363	0	39256	34813	45409	32723	32635	
364	0	38362	34665	38546	32863	32738	
365	0	37853	34068	36891	32825	32871	
366	0	37627	33095	35531	32633	32879	
367	0	35687	32331	34556	32583	32883	
368	0	34472	31515	35899	32797	32741	
369	0	32733	30912	38155	32729	32592	
370	0	29965	30829	35939	32705	32820	
371	0	27399	31200	35318	32685	32962	
372	0	25736	31770	39293	32739	33035	
373	0	24872	32326	33942	32747	33074	
374	0	25032	32608	23273	32662	33024	
375	0	26824	33098	12978	32653	33020	
376	0	29536	33424	15214	32688	33009	
377	0	32297	33628	26021	32755	32811	
378	0	33992	33755	32947	32821	32775	
379	0	35702	33623	36345	32824	32762	
380	0	35542	33708	40135	32775	32825	
381	0	35120	33810	47845	32752	32792	
382	0	34000	33879	48751	32669	32869	
383	0	32680	33815	46550	32711	33029	
384	0	32278	33524	39287	32774	32879	
385	0	33636	32967	29295	32809	32775	
386	0	35397	32158	19263	32892	32842	
387	0	36227	31412	13767	32801	32948	
388	0	35486	30934	26143	32666	32833	
389	0	33572	31104	34823	32732	32815	
390	0	30449	31722	37319	32685	32801	
391	0	29024	32357	36803	32647	32951	
392	0	29721	32899	33123	32743	32880	
393	0	31690	33325	27053	32939	32767	
394	0	34437	33369	30674	32946	32825	
395	0	35931	32953	35906	32967	32770	
396	0	36397	32653	36737	33024	32899	
397	0	35230	31943	34933	33021	32895	
398	0	33596	31271	38061	32770	32939	
399	0	33095	31299	38365	32711	32985	
400	0	33021	31523	36231	32665	32805	
401	0	32238	31943	32999	32724	33013	
402	0	31094	32528	34144	32742	32878	
403	0	29806	32885	33320	32803	32901	
404	0	27876	33092	35731	32775	32682	
405	0	26484	33186	40800	32765	32647	
406	0	27268	33462	37669	32801	32673	
407	0	28510	33569	34730	32741	32755	
408	0	30235	33567	32337	32701	32691	
409	0	32056	33421	25993	32775	32976	
410	0	34112	33454	14354	32694	32933	
411	0	33908	33147	6589	32793	32730	
412	0	32812	32815	12232	32948	32775	
413	0	32208	32672	25240	32832	32921	
414	0	34376	32705	32275	32851	32861	
415	0	37101	32751	31887	32924	32725	
416	0	39736	32839	35309	32750	32853	
417	0	40861	33210	41675	32800	33043	
418	0	40568	33095	45152	32829	32933	
419	0	39529	32770	45287	32846	32720	
420	0	37622	32591	46719	32845	32696	
421	0	34152	32168	40065	32716	32812	
422	0	31563	32007	31970	32557	32946	
423	0	29400	32235	34002	32529	32961	
424	0	27992	32113	38038	32717	32638	
425	0	27170	32278	43974	32831	32748	
426	0	25317	32311	43315	32785	32896	
427	0	25376	32610	35204	32839	32956	
428	0	25688	32978	17844	32708	32933	
429	0	26610	33528	2060	32960	32768	
430	0	28368	33978	4345	32534	32787	
431	0	31312	34468	16709	32858	32863	
432	0	36008	34008	31943	32658	32920	
433	0	38568	33180	40610	32711	32930	
434	0	38440	32536	46575	32806	32672	
435	0	37602	31951	45949	32711	32799	
436	0	36457	31565	38115	32775	32909	
437	0	34946	31429	31872	32775	32909	
438	0	35152	31569	35531	32753	32888	
439	0	36523	31818	37895	32649	32647	
440	0	38272	31900	28485	32826	32688	
441	0	39238	31709	22185	32966	32784	
442	0	38665	31616	25915	33091	32827	
443	0	37368	31587	36205	32883	32912	
444	0	34468	31529	43088	32832	33031	
445	0	31074	31890	45519	32610	32908	
446	0	28408	32790	45889	32606	32775	
447	0	26534	33391	43975	32650	32704	
448	0	25348	34212	36694	32728	32914	
449	0	25048	34386	17428	32972	32995	
450	0	25803	34169	11314	33056	32896	
451	0	27090	33895	17461	33069	32761	
452	0	30420	33829	27140	32933	32953	
453	0	34282	33856	36871	32773	32957	
454	0	35138	33578	41001	32718	32789	
455	0	33529	32425	39525	32718	32827	
456	0	32412	31012	38983	32775	32884	
457	0	32062	29868	36281	32725	32921	
458	0	34696	29450	30338	32856	32660	
459	0	38387	29541	26132	32869	32788	
460	0	40848	30396	29136	32839	32966	
461	0	41437	31712	33023	32716	32922	
462	0	40678	32791	35039	32723	32901	
463	0	38246	33545	36327	32743	32932	
464	0	35481	34119	38369	32825	33095	
465	0	32000	34031	38551	32833	32771	
466	0	29226	33970	38711	32803	32541	
467	0	27288	34100	35987	32747	32359	
468	0	26917	34395	33262	32740	32725	
469	0	27920	34546	29215	32853	33105	
470	0	28961	34653	29791	32818	33121	
471	0	29732	34233	32569	32790	32833	
472	0	30365	33507	35371	32813	32855	
473	0	30511	32665	36339	32896	32959	
474	0	30000	31728	36711	32896	32765	
475	0	28800	31088	37499	32829	32943	
476	0	27582	30791	39205	32649	33027	
477	0	27426	31181	35122	32724	32920	
478	0	28975	31917	27187	32668	32666	
479	0	30866	32751	24667	32792	32656	
480	0	32482	32995	25809	32699	32731	
481	0	34131	33312	34055	32741	32896	
482	0	36534	33625	32280	32760	32976	
483	0	38381	33339	25004	32817	32964	
484	0	36887	33129	23113	32891	33017	
485	0	36162	32946	32482	32772	32980	
486	0	35093	32570	37591	32829	32735	
487	0	33424	31808	30578	33013	32947	
488	0	31535	31256	21849	33139	32921	
489	0	29394	31077	13305	32946	32850	
490	0	28216	31234	17493	32922	32920	
491	0	28901	32217	32049	32800	32985	
492	0	31294	33424	43856	32658	32912	
493	0	36546	33978	49223	32594	32966	
494	0	41768	34407	43571	32656	32948	
495	0	44321	34214	36777	32775	32910	
496	0	42660	33595	31268	32976	32917	
497	0	39874	32917	27796	32903	33035	
498	0	35642	32301	27001	32900	32695	
499	0	31646	31926	30134	32824	32877	
500	0	28745	31717	37665	32739	32925	
501	0	27109	32011	42432	32775	33007	
502	0	26816	32055	41758	32845	32824	
503	0	27996	32112	42942	32681	32690	
504	0	28440	31842	43571	32681	32749	
505	0	28296	32313	42785	32677	33003	
506	0	28720	32569	39167	32757	32995	
507	0	30183	33323	34982	32696	32923	
508	0	32272	33996	27961	32799	32645	
509	0	33529	34563	20545	32912	32688	
510	0	35113	34681	14509	32839	32888	
511	0	37319	34583	17911	32952	32935	
512	0	38688	33875	24865	32852	32655	
513	0	36280	32693	28028	32983	32742	
514	0	33350	31627	34287	32869	32921	
515	0	30808	30739	37246	32868	32735	
516	0	29203	30247	36359	32855	32800	
517	0	28308	30177	28920	32656	32882	
518	0	27742	30638	22674	32713	32925	
519	0	27664	31367	26626	32629	32711	
520	0	28319	32229	31330	32717	32988	
521	0	29703	32569	35427	32844	32899	
522	0	32982	32829	34424	32843	32889	
523	0	35912	33085	33060	32909	32807	
524	0	37328	33620	38907	32932	32792	
525	0	38905	34298	43448	32894	33015	
526	0	39107	34538	45822	32784	32938	
527	0	40884	34623	43719	32766	32962	
528	0	40800	34167	38854	32677	32857	
529	0	38835	33071	33286	32935	32696	
530	0	36000	31958	29293	32775	32720	
531	0	33556	31166	27798	32855	32847	
532	0	32898	30835	26490	32800	32987	
533	0	32824	30991	30962	32853	32775	
534	0	33502	31009	38578	32836	32825	
535	0	34085	31332	44311	32754	32952	
536	0	32505	32327	44690	32715	32809	
537	0	30760	33368	44130	32626	32800	
538	0	29592	34386	37369	32730	32990	
539	0	29556	34672	20138	32676	32954	
540	0	29824	34598	12696	32704	32944	
541	0	29294	33923	15436	32875	32891	
542	0	29517	33453	22275	32547	32723	
543	0	28854	32825	25488	32791	32749	
544	0	28186	32390	31623	32865	32735	
545	0	26786	31712	34615	32877	32819	
546	0	25666	30939	33446	33017	32911	
547	0	25384	30656	36511	33093	32838	
548	0	26823	31101	38713	32967	32685	
549	0	29173	31592	37533	32734	32737	
550	0	31864	32522	37457	32668	32848	
551	0	35554	33642	31264	32751	32930	
552	0	37676	34403	22987	32726	32812	
553	0	39013	34344	25823	32807	32750	
554	0	40421	33977	29039	32903	32717	
555	0	41340	33079	29252	32757	32875	
556	0	40048	32529	32311	32797	32869	
557	0	37720	32551	36041	32692	32896	
558	0	33730	32839	37629	32759	32690	
559	0	31462	33127	34434	32739	32681	
560	0	31685	33362	34578	32869	32677	
561	0	32572	32861	39586	32967	32715	
562	0	33285	32001	41684	33193	32762	
563	0	33124	30688	34053	33135	32803	
564	0	31877	30365	31239	32991	32757	
565	0	30688	30785	36501	32816	32809	
566	0	29452	31967	40825	32699	32800	
567	0	27753	33063	42114	32866	32770	
568	0	27240	33887	41970	32847	32816	
569	0	27659	34231	39329	32685	32811	
570	0	28580	34575	31901	32495	32755	
571	0	28993	34185	23920	32424	32775	
572	0	31081	33710	25394	32509	32792	
573	0	34558	33415	27949	32531	32827	
574	0	36520	32933	31275	32650	32886	
575	0	36166	32037	29412	32608	32958	
576	0	35686	31154	20805	32775	32972	
577	0	35416	30458	10547	32876	32723	
578	0	35911	30362	13787	32705	32753	
579	0	37578	30844	24978	32833	32888	
580	0	38188	31596	37084	32941	32932	
581	0	37945	32375	40655	32882	32957	
582	0	37584	33027	37050	32871	32926	
583	0	37173	33347	35862	32863	32774	
584	0	36410	33833	37800	32845	32915	
585	0	33927	33763	40611	32737	32933	
586	0	30984	33675	45176	32722	32928	
587	0	27638	33480	47530	32857	32747	
588	0	25109	33592	43651	32963	32855	
589	0	23812	33734	31613	32861	32990	
590	0	25144	33785	15861	32845	32693	
591	0	28413	33582	15608	32693	32886	
592	0	34620	33327	24714	32598	32892	
593	0	39208	32911	34268	32658	32920	
594	0	40120	31943	41019	32808	32834	
595	0	37891	31141	44987	32934	32763	
596	0	34754	30967	47106	33011	32882	
597	0	32508	31217	46253	32950	32722	
598	0	30461	31750	44570	32775	32947	
599	0	28605	32289	41779	32676	32999	
600	0	27490	32975	36598	32758	32997	
601	0	26742	33395	31366	32785	32922	
602	0	25574	33299	24080	32731	32856	
603	0	24940	32699	10425	32882	33026	
604	0	25304	32256	4880	32952	32989	
605	0	27195	31827	6486	32915	32948	
606	0	30592	32064	13804	32635	32907	
607	0	34804	32204	24824	32686	32907	
608	0	37441	32501	32659	32691	32944	
609	0	39073	33000	36700	32765	32922	
610	0	40146	33522	40474	32827	32966	
611	0	41085	33792	43974	32785	32761	
612	0	41632	34344	45493	32986	32684	
613	0	40889	34929	44960	33020	32668	
614	0	39315	35719	43621	32903	32937	
615	0	37978	35845	42274	32765	32983	
616	0	36888	34898	36731	32775	32896	
617	0	35538	33093	35077	32947	32659	
618	0	35058	30791	35629	33037	32719	
619	0	33472	28994	35183	32966	32869	
620	0	30944	28093	31512	32862	32930	
621	0	28909	27792	21985	32725	32852	
622	0	26976	29063	24592	32582	32719	
623	0	26537	30818	30089	32577	32772	
624	0	27746	31680	33538	32503	32877	
625	0	29241	32113	35257	32535	32743	
626	0	30880	32635	36256	32637	33048	
627	0	31933	33047	33795	32689	32953	
628	0	32865	33504	36792	32732	32736	
629	0	32213	34131	38632	32696	32839	
630	0	29852	34271	35950	32931	32853	
631	0	26966	34484	35461	32916	32944	
632	0	25208	34477	34362	32838	32993	
633	0	25115	34087	28551	32653	32837	
634	0	26640	33280	26519	32527	32887	
635	0	31328	32498	24302	32672	32898	
636	0	36672	31942	26856	32833	32991	
637	0	41008	31843	31156	33005	32989	
638	0	42040	31856	35251	32905	32963	
639	0	41088	32359	37133	32699	32774	
640	0	38747	33262	36167	32733	32843	
641	0	35181	33739	34201	32886	32888	
642	0	33092	33979	31974	32711	32788	
643	0	32091	33886	31734	32755	32953	
644	0	30213	33723	32047	32863	33007	
645	0	30074	32827	30439	32847	32840	
646	0	30208	31939	28475	32895	32715	
647	0	29414	30971	27769	32662	32946	
648	0	29400	30915	26972	32698	32877	
649	0	30516	31175	33114	32717	32691	
650	0	32040	32379	39259	32647	32664	
651	0	31846	33069	39431	32609	32734	
652	0	31694	33723	39501	32700	33003	
653	0	33198	33659	34058	32602	32838	
654	0	35942	33773	21511	32746	32801	
655	0	37534	33625	16772	32738	32953	
656	0	39109	33709	26176	32848	32692	
657	0	39142	33270	33626	32808	32835	
658	0	38107	32291	32775	33021	32883	
659	0	35565	30909	29097	33104	32921	
660	0	31682	29926	29661	33105	33001	
661	0	30874	29657	31303	33128	32855	
662	0	32365	29962	33607	33071	32820	
663	0	33437	30716	39784	32883	32891	
664	0	33240	31227	43620	32689	32933	
665	0	32826	31683	43743	32603	32922	
666	0	31943	32042	40583	32527	32967	
667	0	30535	32681	37870	32720	32965	
668	0	28645	33322	37669	32762	32954	
669	0	26512	34331	40495	32662	32785	
670	0	26084	34924	43334	32775	32699	
671	0	28263	36290	47303	32673	32720	
672	0	31414	36595	46263	32691	32746	
673	0	34904	36508	39910	32608	32913	
674	0	37008	35355	28192	32522	32923	
675	0	36724	33605	15610	32853	32892	
676	0	35200	31576	8696	33201	32886	
677	0	31866	29797	4762	32900	32967	
678	0	29236	29015	8980	32805	32967	
679	0	27407	29267	16891	32882	32921	
680	0	27234	30273	26208	32595	32706	
681	0	29304	31097	35979	32696	32723	
682	0	34272	31786	39593	32895	32978	
683	0	38286	32576	42348	33008	32787	
684	0	39571	33042	44687	32938	32760	
685	0	39403	33351	39267	32825	32806	
686	0	37724	33544	28659	32752	32888	
687	0	35033	32998	28578	32903	32995	
688	0	32869	32882	35986	32839	32696	
689	0	31077	32846	39922	32757	32912	
690	0	28984	33197	40701	32681	32775	
691	0	26603	33095	36268	32617	32713	
692	0	24564	33190	30720	32775	32761	
693	0	23586	33061	28711	32621	32823	
694	0	25646	33254	33132	32655	32835	
695	0	30098	33200	37449	32642	32758	
696	0	36370	33639	39856	32660	32746	
697	0	41970	34015	41623	32696	32672	
698	0	44786	33990	42266	32579	32742	
699	0	43856	33720	36107	32711	32866	
700	0	40754	33158	19930	32770	32922	
701	0	37340	32411	12500	32824	32813	
702	0	34588	32028	22736	32738	32750	
703	0	32544	31727	34494	32733	32737	
704	0	30116	32128	39009	32626	32659	
705	0	28090	31958	38111	32672	32907	
706	0	27440	31733	33477	32813	32911	
707	0	27517	30912	25620	33029	32905	
708	0	28404	30688	22084	32801	32728	
709	0	30325	30535	27751	32962	32729	
710	0	32128	31239	32317	32941	32911	
711	0	33960	32103	33141	32835	32985	
712	0	33929	33287	36286	32699	33023	
713	0	32634	33824	40217	32592	32905	
714	0	32273	34209	42343	32517	32945	
715	0	32324	34143	43463	32693	32981	
716	0	31629	34211	42412	32679	32933	
717	0	32691	33926	41408	32670	32775	
718	0	32354	33603	41435	32727	32735	
719	0	31288	33144	36589	32664	32870	
720	0	30693	32576	28851	32590	33032	
721	0	31375	32208	26442	32743	32467	
722	0	31682	32033	27491	32684	32425	
723	0	30393	32747	27045	32693	32647	
724	0	29616	33326	20846	32444	32801	
725	0	30521	34386	18824	32711	32826	
726	0	33112	34609	26416	32948	32918	
727	0	37260	34235	35954	33052	32848	
728	0	41411	32733	37681	33164	32804	
729	0	43705	30698	36471	33142	32921	
730	0	42950	29801	37865	33067	33027	
731	0	39894	29499	35811	32912	32950	
732	0	34821	29919	32928	32827	32924	
733	0	30891	30977	36162	32804	32836	
734	0	27352	31885	40932	32694	32767	
735	0	24880	32428	38938	32624	33073	
736	0	23736	32907	34835	32734	33011	
737	0	24528	33090	29773	32639	32597	
738	0	27570	33403	21801	32724	32658	
739	0	31904	33394	15323	32660	32922	
740	0	37048	33680	10433	32738	32880	
741	0	39424	33573	16957	32775	32813	
742	0	39239	33280	30690	32956	32813	
743	0	37408	32660	42585	32936	32941	
744	0	35252	31872	48756	32894	32671	
745	0	33383	31501	49126	33129	32851	
746	0	30981	31711	42170	33016	32898	
747	0	29340	32057	32933	32775	32801	
748	0	28732	32996	25141	32807	33007	
749	0	29173	34155	25383	32587	32989	
750	0	30898	35151	29519	32729	32753	
751	0	33170	35399	37951	32754	32971	
752	0	34910	35112	41001	32966	32896	
753	0	34672	33926	42757	32911	32715	
754	0	33256	32463	38713	32910	32728	
755	0	30222	31289	35187	32974	32821	
756	0	27362	30914	28812	32860	32957	
757	0	25797	30433	24123	32775	32935	
758	0	26099	30207	25447	32775	32959	
759	0	28106	30034	22477	32740	32903	
760	0	30400	30495	24933	32775	32638	
761	0	33304	31839	30493	32548	32687	
762	0	36871	32615	32274	32670	32958	
763	0	40416	33128	32191	32720	32963	
764	0	43328	33437	32170	32879	32927	
765	0	44588	33571	31391	32818	32753	
766	0	42963	33405	30030	32797	32698	
767	0	39219	33165	36236	32839	32868	
768	0	34346	32930	44018	32767	32904	
769	0	31680	32826	47676	32794	32805	
770	0	30328	32799	48278	32733	32807	
771	0	29153	32905	44615	32602	32775	
772	0	27568	33214	36768	32621	32760	
773	0	26136	33509	28185	32683	32958	
774	0	25416	33813	22287	32486	32832	
775	0	26168	34007	22927	32775	32665	
776	0	29202	34275	27699	32670	32869	
777	0	33418	34328	33423	32761	32889	
778	0	36422	33513	34663	32775	32807	
779	0	37548	32755	31462	32920	32766	
780	0	37088	31722	27927	32923	32833	
781	0	35481	31085	27085	32798	32948	
782	0	32890	31097	26111	33074	32839	
783	0	30212	31173	25335	32895	32677	
784	0	28370	31140	30036	32863	32842	
785	0	27788	31503	37413	32762	33001	
786	0	27709	32169	39523	32827	32872	
787	0	28832	32957	38623	32907	32717	
788	0	31202	33669	35111	32743	32861	
789	0	33688	33874	33935	32681	32918	
790	0	34605	33815	33095	32658	32786	
791	0	34394	33542	38339	32696	32716	
792	0	33618	33124	42743	32859	32839	
793	0	33036	32643	42947	32811	32973	
794	0	33136	32455	42363	32595	32899	
795	0	35160	32721	37548	32564	32847	
796	0	36694	33480	25165	32616	32718	
797	0	36892	33882	12350	32711	32816	
798	0	36708	33778	16095	33035	32845	
799	0	36579	33474	25085	32961	32851	
800	0	36209	33068	30779	32957	32813	
801	0	36537	32573	31664	33139	32882	
802	0	37076	32399	31289	32957	32711	
803	0	36308	32279	35107	32757	33012	
804	0	34203	31654	37097	32875	33007	
805	0	32080	30797	35011	32902	32979	
806	0	30532	29923	32681	32772	32673	
807	0	28658	29562	32985	32813	32907	
808	0	28672	30073	35737	32997	32707	
809	0	30342	30995	36591	33005	32745	
810	0	31949	31803	37159	32775	32937	
811	0	31473	32291	36231	32707	32755	
812	0	30701	32575	35434	32770	32717	
813	0	30600	32823	33863	32809	32927	
814	0	29528	32892	27860	32456	32928	
815	0	28261	33094	25894	32560	32995	
816	0	28423	33272	31174	32521	32898	
817	0	28468	33690	39040	32552	32745	
818	0	29516	34347	47032	32664	32809	
819	0	31392	34948	52288	32520	32984	
820	0	32952	35747	48939	32447	32933	
821	0	34234	36305	29280	32482	32856	
822	0	34516	36228	5384	32605	32864	
823	0	33968	35898	9296	33115	32997	
824	0	33178	34742	23980	33170	32957	
825	0	33272	32479	31649	33287	32706	
826	0	34247	30474	33123	33375	32803	
827	0	34738	29063	30896	33499	32899	
828	0	34834	28627	30041	33341	32678	
829	0	36550	29306	36891	32733	32886	
830	0	37711	30134	41517	32552	32730	
831	0	37312	30974	37954	32583	32717	
832	0	36748	31466	31303	32638	32929	
833	0	36268	31519	29454	32487	32690	
834	0	34078	31696	27229	32652	32925	
835	0	32044	32000	23845	32811	32899	
836	0	31332	32599	23265	32769	32662	
837	0	30228	32793	28223	32579	32959	
838	0	29542	33095	34523	32729	32770	
839	0	29762	33636	38587	32607	32999	
840	0	30141	33859	42080	32543	32791	
841	0	30176	34368	39937	32691	32755	
842	0	29733	34123	39702	32686	32999	
843	0	30536	34289	40289	32705	32819	
844	0	32244	34461	34881	32624	32973	
845	0	34386	34549	29047	32837	32723	
846	0	35521	34624	31191	32899	32967	
847	0	35684	34039	34202	32842	32868	
848	0	34376	32933	34695	33038	32707	
849	0	32483	31863	27748	33179	32876	
850	0	32117	31298	24989	33101	32981	
851	0	32840	31223	28419	32805	32898	
852	0	33632	31540	32851	32827	32717	
853	0	34040	31927	34179	32735	32791	
854	0	32908	32285	33959	32643	32899	
855	0	31115	32426	33603	32687	32988	
856	0	29205	32302	35938	32749	32924	
857	0	28469	31993	40228	32775	32702	
858	0	28251	32097	40559	32839	32658	
859	0	29563	32704	33838	32845	32809	
860	0	31198	33114	22087	32896	32757	
861	0	32388	33101	16979	32671	32925	
862	0	32898	33311	20197	32722	32654	
863	0	33688	33368	30102	32741	33001	
864	0	33736	33507	36906	32753	32846	
865	0	32450	33317	39680	32737	32763	
866	0	31941	32829	40688	32741	32711	
867	0	31239	32839	41001	32769	32751	
868	0	31472	32602	40439	32908	32720	
869	0	33926	32217	37491	33023	32895	
870	0	37072	31696	32395	32770	32946	
871	0	39305	31859	30660	32752	32807	
872	0	40335	32307	34281	32706	32693	
873	0	39516	33037	37006	32652	32669	
874	0	37298	33143	36354	32671	32742	
875	0	34506	33447	33934	32760	32883	
876	0	31988	33644	29389	32803	32809	
877	0	30176	33136	25753	32678	32741	
878	0	31145	32839	25524	32725	32991	
879	0	34006	32698	31154	32941	33002	
880	0	36460	32525	35365	32954	32731	
881	0	36832	31918	33781	32882	32671	
882	0	35723	31393	29924	32702	32727	
883	0	33978	30919	25720	32701	32985	
884	0	32534	30352	26751	32827	32975	
885	0	32050	30563	34324	32898	32939	
886	0	31815	30912	39389	32930	32912	
887	0	30414	31687	41277	32895	32831	
888	0	28679	32365	42454	32800	32760	
889	0	25543	33216	39074	32744	32728	
890	0	23630	33935	34668	32638	32829	
891	0	23259	34595	32211	32688	32722	
892	0	23780	34743	33049	32672	32646	
893	0	26274	34915	28857	32675	32576	
894	0	30132	34412	22281	32588	32745	
895	0	35113	33887	19365	32574	32937	
896	0	38933	33325	21516	32367	33026	
897	0	40577	33274	29531	32728	32960	
898	0	40322	33233	36429	32800	32705	
899	0	39010	32995	34387	32626	32704	
900	0	38209	32697	34296	32889	32848	
901	0	37003	32059	33615	33057	32883	
902	0	35392	31380	27697	33033	33008	
903	0	34462	30715	25654	33133	32931	
904	0	32460	30553	33792	32712	32817	
905	0	30151	30393	39675	32583	32694	
906	0	27839	30696	38396	32463	32752	
907	0	25829	31337	36243	32569	32667	
908	0	25408	32013	31348	32960	32893	
909	0	26944	32557	28521	33091	32943	
910	0	29552	32956	31734	32863	32846	
911	0	30888	33786	37157	32875	32767	
912	0	32289	34369	39298	32724	32913	
913	0	34066	34863	38331	32655	32967	
914	0	36334	35161	33331	32689	32978	
915	0	37817	34694	32410	32883	32745	
916	0	38764	33671	32619	32906	32749	
917	0	38628	32455	32133	32667	32989	
918	0	36312	31654	27701	32217	32891	
919	0	32726	31751	24757	32282	32761	
920	0	31239	32870	24216	32755	33023	
921	0	29469	33599	22019	32914	32942	
922	0	29141	33501	28857	32910	32941	
923	0	31162	33085	38308	33037	32885	
924	0	34464	32620	44216	33158	32704	
925	0	35427	32504	45917	33046	32763	
926	0	35236	32687	42790	32839	32910	
927	0	35460	32707	41211	32775	32829	
928	0	35334	32371	42411	32737	32873	
929	0	34180	31767	43682	32742	32895	
930	0	33488	31095	36863	32912	32943	
931	0	31776	31064	23219	32876	32944	
932	0	31111	31672	23967	32770	32920	
933	0	31174	32825	33338	32650	32928	
934	0	32119	33369	33287	32643	32971	
935	0	33226	32904	25824	32800	32960	
936	0	34156	31781	12498	33044	32787	
937	0	34714	30489	11304	33012	32802	
938	0	34632	30023	20103	32933	32747	
939	0	33611	30693	29399	32782	32830	
940	0	33040	32325	36307	32719	32866	
941	0	31400	33751	37307	32794	32909	
942	0	28709	34527	36427	32733	32939	
943	0	26350	34643	36546	32677	32903	
944	0	25270	34494	39258	32725	32839	
945	0	26492	34523	41763	32653	32798	
946	0	29352	34278	42503	32698	32829	
947	0	31944	33745	42503	32658	32699	
948	0	33510	33231	39687	32821	32666	
949	0	34781	32571	36354	32884	32667	
950	0	36252	32124	31698	32916	32907	
951	0	37298	31596	30161	32867	32919	
952	0	37381	31456	31751	32822	32932	
953	0	36887	31927	33343	32822	32939	
954	0	34931	32301	32353	32633	32807	
955	0	32685	32829	30387	32723	32886	
956	0	31288	32583	31475	32665	32903	
957	0	31608	32354	33035	32815	32831	
958	0	32859	32049	31184	32835	32805	
959	0	34034	32091	29511	32871	33029	
960	0	35162	32322	26669	32946	32876	
961	0	35905	32847	25065	32775	32637	
962	0	35962	33144	28739	32873	32758	
963	0	33838	33842	33287	32683	32998	
964	0	32276	33927	36025	32792	33117	
965	0	31762	33510	40784	32672	32739	
966	0	31769	33299	43034	32643	32595	
967	0	30951	32809	40719	32736	32888	
968	0	29574	32516	34345	32834	32955	
969	0	28262	32420	26055	32873	32981	
970	0	27704	32688	18032	32968	32934	
971	0	26674	32801	20050	33046	32977	
972	0	26098	32620	32622	33003	32978	
973	0	27740	32225	37865	32891	32939	
974	0	29860	32327	35958	32884	32890	
975	0	32698	32443	38766	32681	32860	
976	0	37568	32821	39059	32612	32896	
977	0	41088	32998	33055	32559	32801	
978	0	42738	32766	27579	32600	32732	
979	0	41552	32674	30207	32640	32760	
980	0	38339	32636	34926	32697	32711	
981	0	35410	32371	33247	32759	32755	
982	0	32914	32144	35171	32835	32775	
983	0	30489	31915	34397	33012	32774	
984	0	28697	31874	30675	33027	32902	
985	0	27122	32304	25583	32955	32820	
986	0	26496	32955	19941	32662	32706	
987	0	27160	33593	24311	32353	32743	
988	0	29250	34128	31772	32487	32939	
989	0	31815	33336	37842	32664	32935	
990	0	34744	32065	40825	32614	32946	
991	0	37874	30829	36193	32661	32944	
992	0	38881	30388	30648	32924	32873	
993	0	38708	30818	27979	32921	32911	
994	0	38049	31763	33747	32912	32893	
995	0	35344	32793	36463	32861	32869	
996	0	31704	33848	37270	32877	32907	
997	0	28440	34748	38677	32672	32914	
998	0	27289	35954	40534	32495	32823	
999	0	28999	36231	39780	32471	32809	
1000	0	30975	35319	39424	32630	32746	
1001	0	32748	33689	37871	32933	32957	
1002	0	33863	31251	27798	33426	32896	
1003	0	34864	29220	20351	33776	32665	
1004	0	34916	28150	23834	33287	32741	
1005	0	35074	28814	30961	32952	32887	
1006	0	36248	30079	32656	32343	32944	
1007	0	34969	31649	31445	32333	32974	
1008	0	32428	32658	25786	32483	32873	
1009	0	30597	33702	26473	32545	32829	
1010	0	29970	33901	27282	32710	32871	
1011	0	31180	34082	29972	32662	32772	
1012	0	33278	34066	34823	32882	32631	
1013	0	34134	33836	37179	32971	32675	
1014	0	34028	33345	40175	32882	32709	
1015	0	34197	33190	41587	32807	32874	
1016	0	33648	33115	39762	32757	32964	
1017	0	32188	33154	33516	32681	32981	
1018	0	31690	32987	33391	32685	32935	
1019	0	31922	32277	35975	32704	32959	
1020	0	31202	31634	38566	32769	32741	
1021	0	29842	31040	39412	32685	32723	
1022	0	28200	31169	39149	32791	32883	
1023	0	28225	31519	35905	32736	33009	
1024	0	29651	32327	30370	32807	32849	
1025	0	31992	33131	20961	32869	32656	
1026	0	35361	33686	16378	32569	32833	
1027	0	38516	33629	21699	32933	32731	
1028	0	39342	33631	25164	32753	32763	
1029	0	37295	33799	26232	32770	32967	
1030	0	35240	33939	31301	32725	33027	
1031	0	33498	33771	37436	32631	32774	
1032	0	31716	33351	40699	32551	32774	
1033	0	30688	32623	40020	32583	32984	
1034	0	31544	31737	38531	32771	32999	
1035	0	32591	31553	34933	32795	32706	
1036	0	32634	31532	31397	32963	32869	
1037	0	31568	31937	28816	32903	32903	
1038	0	30506	32254	35299	33076	32990	
1039	0	30224	33152	39761	32987	32923	
1040	0	30244	33274	41248	32818	32689	
1041	0	29649	33399	38709	32773	32831	
1042	0	29364	33463	34394	32827	32946	
1043	0	29486	33046	31491	32809	32807	
1044	0	29925	32568	24029	32839	32803	
1045	0	30690	31725	17558	32928	32875	
1046	0	31772	31161	19156	32903	32795	
1047	0	32790	30818	26943	32883	32765	
1048	0	33744	31235	33568	32734	32724	
1049	0	33951	32333	36860	32737	32994	
1050	0	34412	33231	38559	32654	32852	
1051	0	34889	33703	38432	32775	32818	
1052	0	35062	33730	36124	32775	32895	
1053	0	34934	33711	35431	32713	32775	
1054	0	34848	33330	39350	32565	32719	
1055	0	34695	32933	42207	32641	32735	
1056	0	35481	32605	39589	32804	32839	
1057	0	35996	32415	36055	32830	32999	
1058	0	36190	32227	31852	32837	32775	
1059	0	36688	32350	27396	32733	32696	
1060	0	36825	32666	25894	32703	32728	
1061	0	35580	33157	27987	32799	32839	
1062	0	32506	33394	29689	32768	32957	
1063	0	29378	33617	35049	32834	32960	
1064	0	28282	33565	40171	32875	32768	
1065	0	28877	33399	36993	32914	32749	
1066	0	30100	32963	32957	32963	32763	
1067	0	32726	32491	31429	32902	32647	
1068	0	34330	32053	27003	32933	32717	
1069	0	33898	31943	20014	32916	32914	
1070	0	32020	31815	21191	32881	32873	
1071	0	28749	31984	25638	32791	32953	
1072	0	27576	32476	33850	32792	32937	
1073	0	28009	32872	41059	32719	32973	
1074	0	29016	33438	44406	32727	32914	
1075	0	31677	33475	45118	32758	32855	
1076	0	34690	33104	43995	32756	32864	
1077	0	36742	32863	36894	32735	32737	
1078	0	37080	32553	27203	32800	32741	
1079	0	36359	32339	22447	32833	32710	
1080	0	34637	31842	15798	32526	32733	
1081	0	33259	31469	20983	32637	32903	
1082	0	33416	31629	27529	32668	33039	
1083	0	34672	32071	31511	32685	32903	
1084	0	35441	32571	31135	32583	32685	
1085	0	35796	32963	26399	32742	32903	
1086	0	34334	33722	24102	32825	32954	
1087	0	32288	34533	27209	32775	32962	
1088	0	31148	34992	32961	32706	32704	
1089	0	31442	34661	39640	32738	32696	
1090	0	32082	33346	43653	32974	32749	
1091	0	33222	31838	45941	33038	32989	
1092	0	33856	30484	50397	33014	32891	
1093	0	34332	29311	48199	33017	32681	
1094	0	33524	29191	40789	32784	32936	
1095	0	32028	29888	22718	32764	32970	
1096	0	31112	31261	13508	32715	32771	
1097	0	31196	32354	22137	32696	32820	
1098	0	31257	33330	31257	32795	32868	
1099	0	31528	33728	35847	32673	32967	
1100	0	31806	33774	35813	32650	32966	
1101	0	31938	33915	35492	32613	32805	
1102	0	31870	34061	36541	32678	32744	
1103	0	31637	34159	35865	32674	32888	
1104	0	31380	34127	32775	32775	32883	
1105	0	31089	33607	30630	32802	32875	
1106	0	31123	32565	31888	32741	32891	
1107	0	31882	31879	32005	32640	32787	
1108	0	32011	31430	32743	32583	32702	
1109	0	32728	31347	35196	32739	32741	
1110	0	33552	31481	36379	32797	32887	
1111	0	34631	31736	35003	32727	32975	
1112	0	35395	32306	33749	32771	33018	
1113	0	35768	32679	33635	32743	32853	
1114	0	35868	33131	33524	32659	32730	
1115	0	35655	33643	34630	32630	32981	
1116	0	34204	33694	35622	32519	32960	
1117	0	32007	33767	34919	32699	32867	
1118	0	29964	33666	33945	33119	32689	
1119	0	29347	33553	32967	32731	32711	
1120	0	29216	33384	34752	32726	32855	
1121	0	29938	33129	37284	33037	32941	
1122	0	31383	32565	38140	32813	32775	
1123	0	31677	32560	36455	32658	32674	
1124	0	31748	32437	32519	32715	32895	
1125	0	32496	32652	25008	32775	32848	
1126	0	33984	32356	18786	32914	32715	
1127	0	35390	32643	23903	32703	32835	
1128	0	36573	32458	30894	32839	32887	
1129	0	35531	32098	29350	32946	32911	
1130	0	33506	31803	31005	32868	32829	
1131	0	32028	31813	33824	32928	32703	
1132	0	31150	31527	33329	32858	32863	
1133	0	31638	31686	30383	32875	32911	
1134	0	31834	31995	32903	32807	32946	
1135	0	32100	32705	30063	32834	32962	
1136	0	32540	32805	30968	32829	33019	
1137	0	33353	33527	35047	32711	32868	
1138	0	34984	34018	34087	32685	32772	
1139	0	34496	34113	33528	32719	32711	
1140	0	34152	33601	32167	32673	32729	
1141	0	34218	32890	33547	32727	32743	
1142	0	34023	32450	32869	32795	32873	
1143	0	33741	31693	29150	32709	32739	
1144	0	33274	31047	30027	32741	32934	
1145	0	32019	31576	35212	32717	32873	
1146	0	30512	32696	36791	32631	32948	
1147	0	29205	34162	36202	32643	32756	
1148	0	29592	35071	33183	32711	32706	
1149	0	31560	34759	35390	32848	32813	
1150	0	34249	33397	29360	32944	32943	
1151	0	36147	31557	21842	32627	32881	
1152	0	35952	29983	21849	32790	32637	
1153	0	33808	29191	21799	32797	32930	
1154	0	31813	29484	32071	32736	33065	
1155	0	30264	30609	44752	32973	32964	
1156	0	28192	32418	51433	33048	32868	
1157	0	26952	33706	48891	32849	32676	
1158	0	26232	34611	39475	32729	32799	
1159	0	26563	34901	31729	32637	32924	
1160	0	29534	34971	28087	32579	32848	
1161	0	33732	34887	27965	32775	32767	
1162	0	37523	34818	25929	32581	32821	
1163	0	39344	35011	25848	32733	32944	
1164	0	40006	34434	26034	32655	32943	
1165	0	40549	33328	27980	32547	32679	
1166	0	40386	31986	32260	32809	32616	
1167	0	38736	30826	40640	32964	32844	
1168	0	34892	29864	47282	32966	32872	
1169	0	32597	29786	48510	33104	32975	
1170	0	31512	30625	47419	32726	32770	
1171	0	31892	31411	42483	32646	32740	
1172	0	31816	31812	27056	32720	32932	
1173	0	30994	32217	6081	32944	33015	
1174	0	29867	32525	2931	32915	32933	
1175	0	29050	32643	6504	32926	32803	
1176	0	28144	33120	27942	32800	32766	
1177	0	27800	33273	37128	32928	32837	
1178	0	27587	33307	41031	32880	32825	
1179	0	28662	33407	41287	32845	32829	
1180	0	29797	33735	38743	32799	32914	
1181	0	30698	33858	38567	32817	32853	
1182	0	32592	33833	41189	32860	32713	
1183	0	35379	33735	42498	32845	32865	
1184	0	38261	33619	38210	32675	32989	
1185	0	40441	33287	34694	32583	32875	
1186	0	40268	32900	33243	32605	32756	
1187	0	38883	32950	32594	32710	32659	
1188	0	36760	32967	31331	33016	32813	
1189	0	35498	33127	31253	32767	32861	
1190	0	34397	32903	32980	32661	32882	
1191	0	34212	32871	33955	32583	32891	
1192	0	33810	32391	33497	32861	32707	
1193	0	32673	31839	33659	33071	32731	
1194	0	31199	31183	34569	32758	32925	
1195	0	29916	30535	30913	32823	33043	
1196	0	29230	30653	26494	32703	32755	
1197	0	28651	31111	25894	32775	32753	
1198	0	28263	32114	31956	32718	32712	
1199	0	28008	33048	38315	32804	32677	
1200	0	27386	33756	41522	32912	32789	
1201	0	28009	33509	40913	32803	32894	
1202	0	28690	33189	39299	32597	32924	
1203	0	30697	32895	35459	32795	32885	
1204	0	33518	32827	30749	32775	32812	
1205	0	34056	32702	26268	32871	32679	
1206	0	33430	32829	28146	32881	32707	
1207	0	33468	33058	38758	32811	32821	
1208	0	34090	33655	43275	32661	32947	
1209	0	34251	34046	31704	32634	32888	
1210	0	33792	33981	12656	32626	32800	
1211	0	32774	33654	3311	32839	32649	
1212	0	31622	33170	6316	32827	32899	
1213	0	31113	32466	22998	33098	32961	
1214	0	31208	31910	35410	32916	32715	
1215	0	31950	31911	40834	32818	32923	
1216	0	34055	32293	38145	32786	32967	
1217	0	35477	32181	36096	32713	32735	
1218	0	35556	32067	38659	32733	32895	
1219	0	35540	32325	41449	32711	32843	
1220	0	35847	32143	41283	32647	32711	
1221	0	35576	31969	32538	32820	32891	
1222	0	35565	31730	24254	32617	33024	
1223	0	36074	32070	27669	32789	32720	
1224	0	35523	32593	33837	32564	32753	
1225	0	33993	33465	36157	32736	32903	
1226	0	32588	33618	35431	32763	32929	
1227	0	30992	33415	34522	32871	32710	
1228	0	29202	33015	36272	32855	32933	
1229	0	29234	32021	36837	32879	32737	
1230	0	30618	31440	36555	32787	32915	
1231	0	34120	31300	38298	32808	32920	
1232	0	36179	31301	39823	32903	32747	
1233	0	37321	31674	38523	32935	32931	
1234	0	35987	31889	36508	32763	33011	
1235	0	33896	32087	35843	32679	32877	
1236	0	32710	32407	36441	32749	32839	
1237	0	33351	32640	38656	32743	32658	
1238	0	34362	33479	39405	32792	32869	
1239	0	34260	33873	40730	32831	32918	
1240	0	32835	34413	39588	32731	32775	
1241	0	31497	34706	34465	32787	32745	
1242	0	30322	34029	29180	32932	32850	
1243	0	28776	33104	22914	33092	32884	
1244	0	27828	31986	16753	32734	32737	
1245	0	27832	31219	18875	32927	33015	
1246	0	28484	30877	24550	32839	32895	
1247	0	29243	31527	27765	33019	32710	
1248	0	30676	31805	23257	32646	32835	
1249	0	32337	32670	21883	32587	33005	
1250	0	32923	33093	25632	32305	32793	
1251	0	32531	33522	31657	32683	32702	
1252	0	31736	33667	30438	32775	32822	
1253	0	30456	33344	37323	32802	32774	
1254	0	29055	32888	43922	32730	32757	
1255	0	30074	32358	42499	32775	32909	
1256	0	31272	32319	35930	32766	32962	
1257	0	32688	32175	33155	32732	33104	
1258	0	35169	32685	32409	32884	32884	
1259	0	37004	33142	26776	32679	32650	
1260	0	38318	33730	21618	32796	32788	
1261	0	39753	34350	24809	32882	32917	
1262	0	40642	34563	28573	33011	32925	
1263	0	40473	34396	33110	32999	32966	
1264	0	38248	33427	36391	33116	32922	
1265	0	35247	32596	38267	33067	32822	
1266	0	31971	31819	39511	32819	32570	
1267	0	29178	31143	38672	32724	32617	
1268	0	27102	31154	39040	32643	32857	
1269	0	26292	31170	39552	32637	32979	
1270	0	27868	31427	40868	32481	32946	
1271	0	30690	31799	41438	32624	32757	
1272	0	32996	32497	40083	32623	32737	
1273	0	34674	32679	37408	32479	32993	
1274	0	35773	32957	33790	32615	32711	
1275	0	35994	33383	29463	32775	32935	
1276	0	34584	33577	24754	32593	32896	
1277	0	33168	33651	25576	32656	32812	
1278	0	31568	33453	30933	32735	32763	
1279	0	29952	33094	34452	32860	32891	
1280	0	27888	32352	40681	32825	32959	
1281	0	26907	31701	41747	32681	33047	
1282	0	27207	31442	36258	32684	32804	
1283	0	27088	32025	33106	32775	33037	
1284	0	27048	33004	29302	32899	32980	
1285	0	28514	34341	21310	32707	32707	
1286	0	30757	34988	5625	32807	32724	
1287	0	34722	34656	8376	32948	32981	
1288	0	39760	33692	23531	32642	32816	
1289	0	42152	32384	29485	32903	32721	
1290	0	40903	31175	33547	32759	33016	
1291	0	38317	30640	38154	32880	33013	
1292	0	36727	31107	41198	32899	32936	
1293	0	35054	31913	42695	32933	32897	
1294	0	33628	32672	41815	32887	32775	
1295	0	33405	33299	40583	32867	32713	
1296	0	32945	33359	41510	32711	32671	
1297	0	32904	33528	39519	32598	32630	
1298	0	32598	33439	34726	32679	32644	
1299	0	31818	33373	32912	32827	32829	
1300	0	31611	33019	31737	32787	32907	
1301	0	32022	32679	31776	32917	32934	
1302	0	33080	32367	29899	33125	32894	
1303	0	33546	31900	28347	32996	32972	
1304	0	33956	31525	26743	32691	32947	
1305	0	33736	31461	29283	32837	32895	
1306	0	32576	31298	34499	33218	32753	
1307	0	31625	30993	41890	33384	32860	
1308	0	31140	30571	46045	33080	32917	
1309	0	29848	30508	41919	32880	32724	
1310	0	27840	30974	34962	32561	32915	
1311	0	26496	31811	25814	32469	32967	
1312	0	26493	33510	21911	32454	32815	
1313	0	28466	34605	21676	32531	32730	
1314	0	32426	34797	26139	32426	32950	
1315	0	37418	33849	34628	32649	32937	
1316	0	42205	32775	40497	32632	32775	
1317	0	43527	32405	38352	32805	32711	
1318	0	41159	32865	30764	32853	32842	
1319	0	36858	33671	27143	32944	33043	
1320	0	33065	34203	26331	32954	32710	
1321	0	30108	34598	31495	32825	32751	
1322	0	28140	34773	37150	32941	32802	
1323	0	26998	34631	40627	32879	32962	
1324	0	26909	34439	39994	32787	32970	
1325	0	27856	33733	35975	32727	32711	
1326	0	30104	33067	18275	32729	32827	
1327	0	32672	31971	5574	32900	32940	
1328	0	34230	30898	13175	33255	32775	
1329	0	33964	30034	25405	33112	32773	
1330	0	34970	29748	34898	32749	32973	
1331	0	37882	29914	39167	32474	32896	
1332	0	39792	30550	40087	32377	32762	
1333	0	39753	31427	43157	32547	32633	
1334	0	37785	32126	45571	33019	32681	
1335	0	34377	32835	45252	32923	32662	
1336	0	29868	33496	42347	32688	32767	
1337	0	25607	33789	42349	32737	32911	
1338	0	23753	34110	42874	32619	32909	
1339	0	24283	34167	41775	32628	32961	
1340	0	26526	33999	39224	32496	32831	
1341	0	28438	33799	33616	32547	32768	
1342	0	31505	33396	23684	32577	32964	
1343	0	33908	32911	15668	32538	32991	
1344	0	34594	32563	21797	32436	32902	
1345	0	33628	32647	28134	32741	32761	
1346	0	32133	33061	29370	33095	32927	
1347	0	32237	34260	29280	33135	32929	
1348	0	32117	35351	27929	33504	32952	
1349	0	33608	35911	27278	33423	32920	
1350	0	36384	35207	25620	33180	32870	
1351	0	38322	33516	28381	33221	32844	
1352	0	38930	31175	32950	33111	32816	
1353	0	38339	29027	37429	32857	32864	
1354	0	37086	27629	44728	32723	32973	
1355	0	35776	27687	50653	32563	32995	
1356	0	33218	28782	47490	32832	32911	
1357	0	30138	30130	35667	33029	32924	
1358	0	27637	31681	29915	32522	32956	
1359	0	26843	32856	26341	32483	33083	
1360	0	25486	33875	13022	32536	32933	
1361	0	24580	34349	7003	32537	32728	
1362	0	25434	34623	18816	32789	32641	
1363	0	27243	34422	28252	32741	32729	
1364	0	30976	34722	33995	32691	32754	
1365	0	36820	34418	39367	32667	32950	
1366	0	42814	34029	45147	32626	32902	
1367	0	45368	33587	47095	32699	32767	
1368	0	44701	32723	44777	32721	32664	
1369	0	41479	31950	36747	32805	32724	
1370	0	36871	31700	27782	32793	32873	
1371	0	32900	32038	25472	32873	32929	
1372	0	30076	32688	33539	32752	32807	
1373	0	29228	32971	38713	32666	32757	
1374	0	29664	32823	41390	32753	32745	
1375	0	30525	32295	39811	32825	32883	
1376	0	31081	32091	37191	32849	32962	
1377	0	30661	31559	36743	32722	32997	
1378	0	30151	31311	37474	32663	32871	
1379	0	30128	31351	30559	32808	32716	
1380	0	30659	31955	27966	33137	32775	
1381	0	31612	32729	31643	33087	32867	
1382	0	32386	33235	35643	32970	32935	
1383	0	32325	33713	38767	32896	32899	
1384	0	33073	33942	40556	32917	32837	
1385	0	34100	33890	31521	32787	32726	
1386	0	34596	33755	17610	32944	32652	
1387	0	35392	33080	12592	32919	32711	
1388	0	35357	32237	16950	32658	32914	
1389	0	33799	30978	26564	32936	32930	
1390	0	32108	30100	33362	32929	32869	
1391	0	29968	29811	35079	32579	32686	
1392	0	28696	30763	35175	32549	32722	
1393	0	28736	32102	34166	32578	32802	
1394	0	29933	33464	38371	32656	33005	
1395	0	31811	34247	36183	32822	32920	
1396	0	34946	34169	30599	32720	32699	
1397	0	37251	33953	27564	32709	32961	
1398	0	37152	33615	27332	32595	32935	
1399	0	35093	33453	29341	32726	32924	
1400	0	32346	33481	33095	32803	33083	
1401	0	29313	33643	36727	32884	32829	
1402	0	28393	33693	38003	32758	32775	
1403	0	30171	33831	32758	32656	32815	
1404	0	32989	33641	27288	32613	32904	
1405	0	35832	33301	26311	32832	32923	
1406	0	37474	32562	29374	32809	32976	
1407	0	37164	31879	35457	32960	32866	
1408	0	34969	31283	40749	32912	32792	
1409	0	32272	31605	44704	32800	32893	
1410	0	29540	32740	45983	32843	32873	
1411	0	28427	33819	42971	32839	32889	
1412	0	28216	34688	34328	32849	32775	
1413	0	28218	33933	29509	32873	32631	
1414	0	29061	32676	28509	33127	32687	
1415	0	30096	30759	26755	33211	32836	
1416	0	31029	29377	27403	32869	32914	
1417	0	32100	29307	32024	32809	32993	
1418	0	32985	30605	33399	32581	32899	
1419	0	33494	32094	35576	32653	32737	
1420	0	35205	32775	42478	32638	32963	
1421	0	35251	32923	45433	32485	32825	
1422	0	34640	32813	46147	32424	32685	
1423	0	34614	32877	43107	32533	32835	
1424	0	35184	32829	32057	32751	32954	
1425	0	34704	33243	25689	32758	32928	
1426	0	33984	34047	22900	32839	32827	
1427	0	33990	34595	17061	32843	32713	
1428	0	33672	35332	9643	32436	32764	
1429	0	34412	35633	14060	32737	33009	
1430	0	35542	35247	21186	32571	32719	
1431	0	36117	34087	22485	32775	32705	
1432	0	36682	32071	26524	32899	32933	
1433	0	35612	30560	33642	33071	32981	
1434	0	34454	29887	40162	33040	32664	
1435	0	34024	30545	41081	33021	32941	
1436	0	32473	32199	37575	32987	32965	
1437	0	31947	34122	38091	32821	32834	
1438	0	32088	35311	40201	32879	32977	
1439	0	32320	35053	41639	32746	32833	
1440	0	32448	32898	40407	32708	32889	
1441	0	31612	30520	37418	32832	32690	
1442	0	30501	29131	36916	32839	32921	
1443	0	30052	28933	35867	32629	32827	
1444	0	30020	29647	35599	32653	32705	
1445	0	30168	30765	34614	32868	32747	
1446	0	31302	31867	34813	33095	32892	
1447	0	32674	33336	40301	33335	32930	
1448	0	33608	33823	43901	33251	32884	
1449	0	34936	33975	41183	32893	32720	
1450	0	35064	33565	29102	32690	32701	
1451	0	33280	33154	17852	32536	32792	
1452	0	29559	33210	20343	32711	32838	
1453	0	26925	33799	22918	32519	32883	
1454	0	25536	34210	19854	32535	32903	
1455	0	25208	34496	20963	32647	32940	
1456	0	26725	34646	30381	32514	32876	
1457	0	30211	35186	39623	32492	32824	
1458	0	33661	34951	43804	32642	32748	
1459	0	35686	34550	43747	32520	32967	
1460	0	35089	33593	40839	32670	33024	
1461	0	33440	32060	33757	32935	32919	
1462	0	32044	30842	32792	32851	32749	
1463	0	30740	29561	32313	32642	32720	
1464	0	31602	28865	30907	32972	32722	
1465	0	34117	28617	25005	33176	32766	
1466	0	35817	29118	15563	33102	32660	
1467	0	37597	30135	15126	32966	32580	
1468	0	39744	31232	22147	32845	32850	
1469	0	40348	32300	31586	32454	32939	
1470	0	40144	33372	42176	32370	33002	
1471	0	39416	34840	51636	32424	32724	
1472	0	39353	35554	53682	32711	32940	
1473	0	38331	35834	48003	33191	32904	
1474	0	36542	35609	36068	32927	32816	
1475	0	33205	35396	26092	32722	32807	
1476	0	30234	35020	23327	32679	32787	
1477	0	27900	34779	27696	32377	32701	
1478	0	27784	34765	31222	32403	32759	
1479	0	28289	35034	30887	32514	32789	
1480	0	26774	34153	29218	32617	32879	
1481	0	26249	33034	27978	32890	32933	
1482	0	26830	31179	31191	32886	32912	
1483	0	27180	29535	39776	33137	32848	
1484	0	26973	28195	40624	33305	32633	
1485	0	27766	27720	31314	33215	32680	
1486	0	27820	27979	27384	33165	32930	
1487	0	28280	29095	33842	33063	32917	
1488	0	30798	30373	35699	32903	32861	
1489	0	34832	31238	29808	32654	32825	
1490	0	39758	32135	27226	32720	32662	
1491	0	43344	33529	34507	32583	32701	
1492	0	45636	34939	42666	32675	32928	
1493	0	45938	35685	46422	32594	33015	
1494	0	44162	35448	39721	32664	33065	
1495	0	40448	34772	25117	32713	32848	
1496	0	36004	34648	17004	32869	32845	
1497	0	31940	34820	13815	32548	32824	
1498	0	28276	34683	19914	32592	32858	
1499	0	25600	34226	30041	32630	32768	
1500	0	24741	33542	37173	32809	32767	
1501	0	25492	32655	38448	33101	32755	
1502	0	27202	31442	32775	33063	32797	
1503	0	28893	30535	35212	32858	32692	
1504	0	30533	30203	43496	32728	32853	
1505	0	31593	30683	48897	32676	32932	
1506	0	31500	31231	49803	32843	32876	
1507	0	30834	32543	46976	32699	32823	
1508	0	30627	33381	42717	32858	32824	
1509	0	30966	33764	35525	32775	32765	
1510	0	30541	32654	19988	32772	32858	
1511	0	30954	31769	14459	32649	33031	
1512	0	32941	30591	17574	32487	33130	
1513	0	34814	31055	25280	32582	33081	
1514	0	35555	31865	30499	32474	32903	
1515	0	36184	32774	29699	32611	32857	
1516	0	35399	33653	29968	32929	32997	
1517	0	33052	34350	32486	32789	32882	
1518	0	30752	34103	33680	32895	32765	
1519	0	29328	34370	32875	32829	32667	
1520	0	28946	34823	32198	32815	32795	
1521	0	29518	34939	36605	32757	32932	
1522	0	29766	34168	40610	32896	32979	
1523	0	30352	33073	40793	32936	32801	
1524	0	33141	31660	34624	32805	32609	
1525	0	36490	31020	27962	32902	32742	
1526	0	39389	31186	19642	32888	32840	
1527	0	40848	31764	17753	32601	32906	
1528	0	40959	32103	19149	33027	32850	
1529	0	39520	32038	25211	33127	32605	
1530	0	37959	31943	35016	33209	32765	
1531	0	34592	31397	40801	32929	32877	
1532	0	31768	31273	42922	32725	32915	
1533	0	29996	31501	46599	32675	32888	
1534	0	30568	31713	48263	32655	32949	
1535	0	33175	32237	48040	32506	32997	
1536	0	34692	32530	43071	32683	32940	
1537	0	35172	32737	31313	32710	32962	
1538	0	33888	32732	14986	32740	32945	
1539	0	31403	33125	10105	32424	32880	
1540	0	27878	33653	21434	32556	32728	
1541	0	25461	34469	32684	32504	32746	
1542	0	24499	35211	37765	32597	32748	
1543	0	25166	36071	38418	32543	32720	
1544	0	28962	36907	36487	32533	32821	
1545	0	32374	37478	34571	32696	32912	
1546	0	34885	37136	33831	33012	32921	
1547	0	36428	35502	40473	33142	32844	
1548	0	36408	33120	48514	33182	32860	
1549	0	34546	30759	50390	33315	32832	
1550	0	33612	28665	46307	33244	32853	
1551	0	32960	27498	31383	33016	32850	
1552	0	32616	27205	13003	33160	32829	
1553	0	34000	27497	6809	33158	32807	
1554	0	36460	28364	20040	32865	32882	
1555	0	38765	29602	34539	32569	32983	
1556	0	37862	30521	39586	32525	33007	
1557	0	35292	31911	38102	32569	32989	
1558	0	33203	33149	38389	32625	32967	
1559	0	31385	33685	39405	32410	32754	
1560	0	29148	34311	32477	32368	32766	
1561	0	29282	34912	16911	32660	32734	
1562	0	31376	35714	11986	32877	32847	
1563	0	32722	35495	23802	32851	32904	
1564	0	33559	35189	34306	33093	32929	
1565	0	33308	34731	39414	32944	32925	
1566	0	31794	34101	37445	33043	33019	
1567	0	30770	33644	33018	32790	32795	
1568	0	28505	32711	29566	32789	32715	
1569	0	26112	32329	33525	32868	32888	
1570	0	26212	32036	41153	32889	32812	
1571	0	26764	31774	47499	32775	32792	
1572	0	27634	31257	48770	32891	32952	
1573	0	29672	30962	51456	32683	32809	
1574	0	32728	30693	50241	32590	32699	
1575	0	35760	31061	41368	32425	32890	
1576	0	37283	31500	25256	32578	32948	
1577	0	37986	31968	4661	32108	32729	
1578	0	36117	32333	575	32333	32876	
1579	0	33693	32127	4268	32949	32832	
1580	0	34058	31293	8043	33426	32622	
1581	0	36048	30397	22421	33078	32820	
1582	0	38372	30808	34724	32860	32966	
1583	0	39728	31889	39566	32873	32939	
1584	0	40768	33349	46008	32783	32917	
1585	0	40824	34670	51184	32428	33005	
1586	0	40075	35754	53480	32568	32984	
1587	0	36807	36419	52935	32715	32993	
1588	0	32600	36499	49036	32497	32997	
1589	0	29384	35739	42930	32534	32880	
1590	0	27333	34904	31728	32582	32725	
1591	0	27072	33978	22607	32804	32682	
1592	0	28281	33559	22602	33027	32915	
1593	0	28769	33179	26342	33008	32906	
1594	0	27259	33023	30264	33089	32967	
1595	0	26050	32825	33427	33057	32898	
1596	0	27061	31815	32309	33312	32797	
1597	0	30476	30299	24950	33317	32716	
1598	0	33746	28892	25087	32839	32751	
1599	0	36920	28581	27319	32850	32869	
1600	0	38244	29387	24262	32755	32884	
1601	0	36978	30855	22994	32399	32943	
1602	0	34120	31982	27096	32583	32809	
1603	0	30764	32309	33252	32568	32667	
1604	0	27845	32770	40194	32502	32752	
1605	0	27771	33337	47195	32573	32941	
1606	0	29126	33922	52002	32669	32936	
1607	0	31293	34542	51986	32605	32775	
1608	0	33677	34105	47513	32695	32727	
1609	0	34880	33250	41680	32823	32821	
1610	0	34690	32642	28768	32747	32920	
1611	0	34304	33013	12971	32922	32954	
1612	0	33235	34252	8389	33068	32971	
1613	0	32525	34726	15842	32604	32837	
1614	0	32820	34098	25829	32805	32685	
1615	0	32620	32800	33306	32713	32725	
1616	0	31794	31567	37282	32775	32882	
1617	0	31067	30823	36711	32741	32942	
1618	0	32476	31122	37023	32774	32829	
1619	0	34213	31308	39890	32619	32774	
1620	0	35296	31487	42345	32683	32903	
1621	0	35216	31729	45714	32621	32962	
1622	0	32977	32711	43866	32768	32849	
1623	0	31864	33825	36416	32796	32743	
1624	0	30968	34861	26557	33020	32716	
1625	0	30254	35320	21093	33258	32686	
1626	0	31024	34819	18433	33080	32812	
1627	0	32936	33890	18757	33247	32861	
1628	0	34546	32047	27179	33056	32937	
1629	0	36086	30717	30535	32774	32978	
1630	0	36994	29664	27270	32586	32924	
1631	0	36038	28695	27692	32631	32849	
1632	0	35208	28358	36101	32676	32710	
1633	0	32792	28426	43506	32670	32946	
1634	0	29420	29558	46306	32805	32941	
1635	0	27697	32128	43628	32733	32895	
1636	0	28286	35116	41152	32805	32694	
1637	0	30772	37405	37923	32793	32644	
1638	0	32622	37682	27332	32818	32738	
1639	0	33588	37465	19309	32612	32774	
1640	0	35292	36257	25884	32630	32976	
1641	0	36204	35065	32263	32694	33057	
1642	0	36171	33898	33362	32633	32799	
1643	0	36132	33037	26212	32788	32768	
1644	0	36054	32595	22808	32921	32849	
1645	0	36100	32391	28007	32968	32952	
1646	0	35960	31412	33262	33135	33008	
1647	0	35940	29368	37006	33538	32997	
1648	0	35675	27774	41055	33094	32886	
1649	0	34276	26989	44909	32749	32740	
1650	0	32020	27759	42523	32647	32871	
1651	0	30788	29734	38023	32612	33004	
1652	0	30537	32533	34200	32723	32948	
1653	0	30144	34311	32263	32521	32873	
1654	0	29786	35110	29188	32071	32658	
1655	0	28890	35389	34064	32135	32680	
1656	0	28336	35995	40912	32524	32872	
1657	0	27428	36355	43195	32769	32675	
1658	0	26316	36819	40989	32751	32888	
1659	0	26134	36808	35315	32753	32711	
1660	0	27445	36722	24425	33018	32976	
1661	0	28450	35975	14850	32744	32805	
1662	0	30616	34679	14234	33004	33029	
1663	0	32829	31842	14545	32879	32865	
1664	0	35586	29134	22961	32889	32895	
1665	0	37157	27319	26322	32861	32898	
1666	0	37296	26824	31621	32520	32753	
1667	0	36792	27507	41296	32644	32986	
1668	0	36672	29172	45235	33069	32642	
1669	0	35729	31174	43330	32997	32860	
1670	0	34418	32656	39920	32882	32795	
1671	0	33986	33776	21758	32688	32760	
1672	0	33681	34399	13264	32823	32940	
1673	0	32803	34102	21337	32875	32775	
1674	0	31614	34212	31118	32775	32941	
1675	0	30066	34549	39306	32729	32728	
1676	0	28777	34764	44550	32601	32911	
1677	0	28362	35011	45601	32600	32775	
1678	0	29506	34672	44674	32742	32843	
1679	0	32090	33897	40567	32743	33003	
1680	0	34125	32785	32745	32704	32724	
1681	0	35070	31764	30365	32656	32824	
1682	0	36462	31013	33008	32514	32868	
1683	0	37920	30253	33639	32402	32775	
1684	0	39428	30866	33091	32627	32658	
1685	0	40848	32048	35878	32658	32910	
1686	0	41258	32912	39375	32662	32743	
1687	0	39629	34082	42712	32825	32869	
1688	0	35504	34019	49133	32861	32858	
1689	0	31020	33520	48111	33081	32756	
1690	0	28229	33184	29860	33250	32910	
1691	0	28163	32288	11792	33202	32845	
1692	0	28664	32142	12515	32989	32915	
1693	0	28270	32297	19721	32901	32949	
1694	0	26336	33170	21583	33090	32827	
1695	0	24751	33462	25848	32939	32940	
1696	0	24792	33371	26367	33117	32962	
1697	0	27642	32033	22091	33222	32800	
1698	0	29857	31559	24720	32944	32919	
1699	0	32434	31106	31003	32489	32955	
1700	0	35833	31140	33125	32274	32757	
1701	0	39184	31674	36297	32381	32839	
1702	0	41316	32541	39317	32256	32947	
1703	0	41478	32918	42095	32371	32731	
1704	0	40077	33210	43174	32611	32855	
1705	0	37821	33253	43743	32705	32729	
1706	0	37021	32741	42101	32729	32973	
1707	0	35968	31784	35629	32726	32879	
1708	0	33116	31239	35146	32839	32630	
1709	0	30244	30792	40644	33004	32723	
1710	0	27406	31081	47949	32870	32920	
1711	0	26337	31392	46018	32578	32697	
1712	0	25692	32328	29953	32812	32748	
1713	0	25420	34247	14924	32818	32898	
1714	0	26397	36455	16650	32613	32928	
1715	0	27719	37824	25360	32728	32864	
1716	0	28768	37671	32365	32863	32805	
1717	0	30629	36064	44908	33232	32755	
1718	0	31880	33983	54617	33131	32758	
1719	0	32932	31382	48775	32902	32847	
1720	0	32305	29878	34185	32972	32781	
1721	0	32098	29656	20071	32926	32788	
1722	0	32502	29963	20164	32844	32898	
1723	0	32760	29584	11826	32748	32967	
1724	0	32669	29767	4392	32807	32973	
1725	0	32946	30642	6938	33008	32908	
1726	0	33792	31453	13972	32987	32914	
1727	0	35376	32608	22688	32630	32682	
1728	0	36608	34066	29295	32630	32697	
1729	0	37486	35485	34392	32546	32800	
1730	0	38407	36335	41376	32685	32852	
1731	0	39104	36655	44238	32583	33019	
1732	0	38898	36295	43623	32694	32994	
1733	0	39141	35222	42219	32724	32883	
1734	0	38762	32926	42524	32943	32674	
1735	0	37064	30407	43817	33312	32658	
1736	0	34400	28314	45932	33140	32836	
1737	0	32121	27660	50088	32770	33004	
1738	0	31545	28413	52884	32504	32817	
1739	0	31697	30069	53682	32356	32817	
1740	0	31914	31835	48753	32455	32775	
1741	0	32139	33623	43767	32631	32861	
1742	0	32325	34484	36827	32890	32889	
1743	0	31626	34018	16994	32832	32872	
1744	0	30296	33485	33	32824	32832	
1745	0	29596	33646	17	32868	32745	
1746	0	29346	33799	7780	32824	32775	
1747	0	28964	33360	25588	32610	32833	
1748	0	27405	33035	30283	32597	32838	
1749	0	26340	33213	32767	32751	32861	
1750	0	25826	33119	36827	32896	32914	
1751	0	25813	32982	38626	32865	32919	
1752	0	26348	32669	38161	32733	33000	
1753	0	29028	32263	38855	32549	32737	
1754	0	33174	32688	32856	32796	32857	
1755	0	36854	33121	28755	32937	32934	
1756	0	40100	33426	32139	32850	32692	
1757	0	43104	34201	33106	33006	32876	
1758	0	44371	34634	29979	32967	32997	
1759	0	42337	35189	29409	33014	32947	
1760	0	37465	35640	32750	32939	32922	
1761	0	31652	35570	37319	32736	32656	
1762	0	26916	34598	40752	32583	32912	
1763	0	25784	32669	46119	32690	32960	
1764	0	26252	30783	45630	32934	32871	
1765	0	28487	28830	41278	32817	32906	
1766	0	31038	28438	41021	32899	32967	
1767	0	32866	29025	40236	32617	32775	
1768	0	34043	29557	37238	32477	32696	
1769	0	33764	29902	27198	32614	32730	
1770	0	31229	30203	13376	32711	33001	
1771	0	29294	30769	9286	32818	33029	
1772	0	28460	32005	22188	32656	32941	
1773	0	29504	32643	28544	32741	32805	
1774	0	32257	34155	27421	32456	32656	
1775	0	34207	34582	27346	32653	32704	
1776	0	34740	34541	28163	33043	32711	
1777	0	37092	34217	33671	33287	32836	
1778	0	40236	34003	37925	33296	32939	
1779	0	42616	33829	36331	32800	32794	
1780	0	43508	33776	29678	32632	32758	
1781	0	41978	33631	23208	32863	32773	
1782	0	38616	33330	26953	33137	32819	
1783	0	34520	32753	34752	33479	32960	
1784	0	30576	31876	41278	33280	32771	
1785	0	27997	30540	43174	32989	32889	
1786	0	27138	30336	43705	32618	32709	
1787	0	28132	30897	45901	32293	32730	
1788	0	30528	32218	46968	32009	32738	
1789	0	30710	32615	45529	32045	32877	
1790	0	30512	33145	39781	32217	33010	
1791	0	30041	34005	27526	32294	32976	
1792	0	30732	34409	17636	32871	32813	
1793	0	31326	34823	15046	33017	32775	
1794	0	30594	34962	20456	33095	32907	
1795	0	29624	34759	29961	33091	33007	
1796	0	29558	33686	35463	33047	32930	
1797	0	30256	32535	36599	32860	32737	
1798	0	30080	31744	36827	32855	32696	
1799	0	30091	32711	36034	32821	32775	
1800	0	30142	34366	30063	32644	32858	
1801	0	29411	36204	24597	32878	32902	
1802	0	28473	36441	30222	33028	32953	
1803	0	28356	33764	40088	33248	32784	
1804	0	28910	29751	44598	33240	32742	
1805	0	29463	26624	46023	33048	32748	
1806	0	31801	25404	45924	32575	32891	
1807	0	34653	26246	41747	32358	32872	
1808	0	35643	28696	36026	32484	32904	
1809	0	36474	31703	29671	32549	32967	
1810	0	38348	33666	36419	32356	32957	
1811	0	40512	34420	32796	32455	33018	
1812	0	40786	35106	15512	32833	32948	
1813	0	40016	35597	2359	32997	32932	
1814	0	38681	35576	7574	32838	32852	
1815	0	37724	35222	22208	32983	32677	
1816	0	36537	34527	25764	32911	32693	
1817	0	36041	33990	28428	32847	32663	
1818	0	35190	34168	34207	32660	32730	
1819	0	34274	33991	37877	32665	32796	
1820	0	33986	33667	37117	32809	32765	
1821	0	34065	32157	34959	32857	32823	
1822	0	34637	31117	37744	32735	32696	
1823	0	35592	30306	42861	32811	32785	
1824	0	35425	30543	44662	32853	32813	
1825	0	33392	30887	42322	32833	32729	
1826	0	31060	31427	41157	32809	32762	
1827	0	29546	31904	41722	32775	32941	
1828	0	28848	32500	42085	32824	33005	
1829	0	27664	32548	41600	32759	32967	
1830	0	26464	32576	41726	32775	32937	
1831	0	25252	32357	38447	32619	32960	
1832	0	25792	32809	29208	32634	32962	
1833	0	27587	33344	18057	32707	32923	
1834	0	29574	33744	12763	32750	32947	
1835	0	31112	34503	14869	32775	32953	
1836	0	32570	34800	23249	32884	32903	
1837	0	33151	34855	29703	32907	32839	
1838	0	32495	34627	30015	33037	32817	
1839	0	31472	34386	31712	33033	32711	
1840	0	30508	33388	33991	32807	32751	
1841	0	28865	33001	30586	32737	32670	
1842	0	30244	32214	25439	32659	32686	
1843	0	32138	31414	28198	32587	32755	
1844	0	32796	31180	34157	32605	32893	
1845	0	33253	31776	42656	32589	33020	
1846	0	32868	32925	46742	32646	32850	
1847	0	33240	33991	41216	32847	32967	
1848	0	32853	33970	28203	32845	33046	
1849	0	33458	33371	21779	32898	32775	
1850	0	34460	32061	29138	32985	32987	
1851	0	34694	31343	35968	32677	32937	
1852	0	34852	30915	39495	32649	32704	
1853	0	35577	30522	38228	32867	32758	
1854	0	36359	30493	37895	32919	32882	
1855	0	36859	30114	41243	32844	32988	
1856	0	37159	30576	41579	32641	32895	
1857	0	36488	32263	36207	32513	32895	
1858	0	35182	34548	27404	32525	32733	
1859	0	34306	36355	19574	32683	32561	
1860	0	34024	36393	22968	32879	32651	
1861	0	34916	35445	28460	33102	32773	
1862	0	36787	33510	32056	33030	32721	
1863	0	38084	31694	35361	32929	32763	
1864	0	37404	30502	39559	32893	32977	
1865	0	35578	29890	43655	32829	32912	
1866	0	33630	29420	37028	32843	32749	
1867	0	31051	29766	32549	32943	32885	
1868	0	28325	30586	38540	32845	32946	
1869	0	26222	31988	40805	32753	32978	
1870	0	24482	32813	36219	32839	33005	
1871	0	23648	33366	29838	33051	33008	
1872	0	26772	33559	28400	32775	32855	
1873	0	31132	34184	24071	32954	32772	
1874	0	34869	34421	13873	33196	32728	
1875	0	37000	34562	16929	32767	32656	
1876	0	37328	34202	25199	32914	32719	
1877	0	35512	33600	32293	32897	32789	
1878	0	32928	32239	36063	32773	32884	
1879	0	31056	31782	40026	32592	33032	
1880	0	30856	30938	45492	32726	32730	
1881	0	30212	30426	47248	32699	32869	
1882	0	29888	30128	48531	32786	32941	
1883	0	29528	30647	47952	32736	32854	
1884	0	29462	31117	42531	32594	32704	
1885	0	30058	32197	28146	32594	32818	
1886	0	30776	33492	16488	32636	32768	
1887	0	32946	34978	15251	32785	32711	
1888	0	36001	36055	14262	32664	32883	
1889	0	38162	35874	13577	32720	32930	
1890	0	38936	34293	17708	32789	33043	
1891	0	38914	32652	26498	32693	32967	
1892	0	36396	31404	37490	32583	32856	
1893	0	32866	31209	41474	32386	32754	
1894	0	30670	31131	42237	32519	32938	
1895	0	30307	31934	41775	32833	32893	
1896	0	29682	32467	37733	33438	32993	
1897	0	30151	33215	36119	33347	32775	
1898	0	30715	33703	34847	33095	32719	
1899	0	30127	33106	36398	32856	32919	
1900	0	29675	32839	39827	32695	32895	
1901	0	31172	32445	34293	32486	32772	
1902	0	33240	32306	26463	32624	32763	
1903	0	35792	32934	27867	32552	32754	
1904	0	36004	32927	31629	32263	32748	
1905	0	35047	33671	35695	32203	32764	
1906	0	35015	34258	35951	32455	32775	
1907	0	34580	35091	33923	32800	32917	
1908	0	32644	35384	34941	33137	32882	
1909	0	31564	34865	32061	33971	32853	
1910	0	30813	33784	30854	34119	32699	
1911	0	29826	32405	37337	33620	32685	
1912	0	29859	30870	37496	33078	32962	
1913	0	31509	29799	30795	33026	32843	
1914	0	33164	29295	20660	32765	32692	
1915	0	35787	29801	19134	32365	32775	
1916	0	38599	30711	25119	32031	32912	
1917	0	40912	30783	26264	32232	33006	
1918	0	40488	30879	26151	32402	32946	
1919	0	37273	31369	26416	32473	32770	
1920	0	34004	32063	32941	32597	32807	
1921	0	30952	32840	43176	32742	33016	
1922	0	28232	33404	49432	32848	32802	
1923	0	27097	33482	52922	32824	32592	
1924	0	27694	33305	54151	32699	32786	
1925	0	28284	33546	46407	32523	32926	
1926	0	29368	34158	31296	32562	32842	
1927	0	30224	34412	15366	32624	32639	
1928	0	30344	35271	16709	32719	32715	
1929	0	30685	35845	27012	32606	32847	
1930	0	29556	35955	34258	32440	32960	
1931	0	27432	35939	37174	32728	32879	
1932	0	25404	35529	37595	32812	32757	
1933	0	26720	34669	39098	32925	32787	
1934	0	30684	33519	36125	33023	32772	
1935	0	36735	31765	33532	32837	32728	
1936	0	42602	29965	30954	32738	32729	
1937	0	46250	28707	24609	32914	32716	
1938	0	46856	28082	18258	32845	32704	
1939	0	45053	28103	20085	32871	32727	
1940	0	41986	28873	29966	32857	32976	
1941	0	38864	31254	36683	33144	32946	
1942	0	36648	33165	42314	33185	32770	
1943	0	35186	35045	49328	33138	32749	
1944	0	32340	35733	49663	33085	32925	
1945	0	29128	34341	42503	32775	32924	
1946	0	26902	32600	34610	32965	32805	
1947	0	24932	30200	28228	32928	32838	
1948	0	23520	28852	21052	32816	32865	
1949	0	22384	28633	14179	32664	32827	
1950	0	21492	29501	21828	32586	32735	
1951	0	21817	31294	34533	32412	32724	
1952	0	23676	33368	44686	32421	32775	
1953	0	26654	35312	42453	32615	32955	
1954	0	30080	35659	31746	32744	32904	
1955	0	33516	34638	19216	32874	32892	
1956	0	36852	34121	9471	32767	32995	
1957	0	38167	33722	11391	32768	32909	
1958	0	38233	34011	25678	32836	32866	
1959	0	39272	34414	43068	32557	32868	
1960	0	39938	34722	52672	32548	32626	
1961	0	40780	34758	57306	32672	32690	
1962	0	40610	33671	58849	32731	32807	
1963	0	39284	32058	50183	32839	32970	
1964	0	36092	30452	30320	32996	32987	
1965	0	31736	28954	11688	33108	32737	
1966	0	27816	28742	5187	33099	32834	
1967	0	25704	29762	11059	32937	32898	
1968	0	25336	31930	15122	32975	32877	
1969	0	26338	33564	21898	33172	32775	
1970	0	28424	34381	31273	32696	32704	
1971	0	30400	34539	37928	32464	32679	
1972	0	32166	34784	42276	32331	32903	
1973	0	33833	34959	43739	32449	32967	
1974	0	35212	34661	44499	32428	33091	
1975	0	35757	34339	42431	32651	33095	
1976	0	35744	33671	36695	32768	33125	
1977	0	34720	33287	36614	32747	32999	
1978	0	35330	33259	38209	32736	32847	
1979	0	36472	33840	39614	32864	32930	
1980	0	37981	34237	41666	33017	32925	
1981	0	39504	33357	44020	33468	32739	
1982	0	38020	31175	44871	33395	32893	
1983	0	35701	28823	43778	33011	32882	
1984	0	32839	27721	39648	32807	32975	
1985	0	29694	28652	31324	32698	32880	
1986	0	27785	30350	16972	32740	32571	
1987	0	26744	31688	11976	32198	32505	
1988	0	26932	33362	11549	32321	32549	
1989	0	28310	34421	19217	32445	32597	
1990	0	30224	35262	26643	32351	32583	
1991	0	32258	35303	25950	32736	32611	
1992	0	34322	34861	24093	33315	32539	
1993	0	35718	33609	28850	33647	32598	
1994	0	35410	32248	38097	33639	32573	
1995	0	34812	31457	45944	33080	32813	
1996	0	34188	31173	50546	32904	32931	
1997	0	32110	31167	51715	32647	32960	
1998	0	31330	31853	47330	32357	32957	
1999	0	31428	32502	35780	32331	32880	
2000	0	31948	33330	20933	32442	33044	
2001	0	32565	33493	12242	32518	33099	
2002	0	32464	32967	14215	32463	32849	
2003	0	33102	32317	22163	32638	32886	
2004	0	33875	32097	30872	32747	32940	
2005	0	33246	32568	34771	32851	33101	
2006	0	32518	33186	35002	32992	32988	
2007	0	33216	34311	37959	32938	32915	
2008	0	33916	34911	41064	32979	32836	
2009	0	33485	35335	40534	32927	32765	
2010	0	32654	35422	35417	32902	32795	
2011	0	31547	34117	29433	32825	32817	
2012	0	30464	32704	26013	32824	32839	
2013	0	30126	31378	27094	32827	32884	
2014	0	30242	30450	29306	32771	32873	
2015	0	30416	30283	32590	32511	32802	
2016	0	31563	31285	36613	32475	32760	
2017	0	32427	32921	43773	32536	32703	
2018	0	33456	33460	51027	32591	32914	
2019	0	34479	34299	49215	32615	32752	
2020	0	35081	34206	37063	32586	32994	
2021	0	34856	33407	36045	32693	33029	
2022	0	33552	32655	38609	33046	32896	
2023	0	31950	32052	30289	33264	32699	
2024	0	30194	31435	13596	32962	32668	
2025	0	31164	30701	5071	32496	32861	
2026	0	33161	29902	13795	32488	33036	
2027	0	34084	30089	25629	32416	32921	
2028	0	34604	31766	31928	32581	32747	
2029	0	34384	34006	35088	32628	32815	
2030	0	33414	34426	38383	32696	32878	
2031	0	32848	33482	39311	33097	32984	
2032	0	32932	31386	38841	33088	32930	
2033	0	33833	29407	37699	33061	32686	
2034	0	33912	28153	38911	32941	32997	
2035	0	33752	28787	41752	32886	32827	
2036	0	33442	30669	41730	32643	32775	
2037	0	32556	32742	43825	32548	32713	
2038	0	31194	33818	46683	32621	32849	
2039	0	30345	35053	46245	32320	32949	
2040	0	28403	36532	39366	32516	32947	
2041	0	27096	37624	23516	32716	32905	
2042	0	27270	36724	13059	32904	32668	
2043	0	29388	35192	12675	33147	32722	
2044	0	32073	33198	15243	32919	32747	
2045	0	34338	32184	16259	32761	32851	
2046	0	35517	31417	16988	32870	32723	
2047	0	35937	31410	25485	32753	32902	
2048	0	35800	30951	33977	32883	32920	
2049	0	36000	30403	36129	32912	32731	
2050	0	37536	29894	34653	32839	32978	
2051	0	39678	30693	31336	32556	33073	
2052	0	39890	31769	32535	32704	32775	
2053	0	36862	33400	38245	32857	32775	
2054	0	33810	34798	41242	32834	32965	
2055	0	31084	35888	43388	32786	32939	
2056	0	29288	36231	46189	32656	32760	
2057	0	28955	35683	46179	32736	32877	
2058	0	28745	34087	42979	33007	32691	
2059	0	28373	32446	33433	33009	32689	
2060	0	27494	30558	29143	32583	32749	
2061	0	26058	29599	30796	32589	32924	
2062	0	25528	29819	32744	32565	32830	
2063	0	26032	30969	34459	32450	32786	
2064	0	28479	32217	34311	32464	32847	
2065	0	34598	33333	31563	32684	32926	
2066	0	42818	34208	25682	32937	32781	
2067	0	48270	34280	24562	33141	32683	
2068	0	49397	33799	27002	33085	32855	
2069	0	47332	33312	34635	32912	32960	
2070	0	43136	33251	38261	32819	32895	
2071	0	37661	33105	34960	32740	32839	
2072	0	33438	32112	33449	32748	32749	
2073	0	30421	30752	27534	32891	32755	
2074	0	27740	29147	25773	32896	32832	
2075	0	25170	28789	26503	32866	32962	
2076	0	23675	29107	22979	32785	32974	
2077	0	23182	29982	16386	32755	32772	
2078	0	23784	32048	18899	32866	32574	
2079	0	25382	33757	31851	32713	32590	
2080	0	27930	35188	42084	32871	32621	
2081	0	29529	35940	46785	32864	32728	
2082	0	30727	36513	49377	32711	32890	
2083	0	31368	36351	48071	32775	32997	
2084	0	31328	36113	43051	32635	32867	
2085	0	31532	35378	32433	32699	32839	
2086	0	33908	34375	25251	32879	32746	
2087	0	36018	33062	24976	32997	32755	
2088	0	36460	31401	28847	32898	32967	
2089	0	35500	30619	29149	32967	33012	
2090	0	34634	30423	29005	32915	32719	
2091	0	33226	30572	31682	32793	32666	
2092	0	32389	30476	35593	32756	32647	
2093	0	31815	31029	34394	32918	32738	
2094	0	31002	31419	30446	33147	32801	
2095	0	30880	31873	30525	32919	32720	
2096	0	30800	32657	33927	32687	32692	
2097	0	32737	33809	39211	32804	32704	
2098	0	35556	34390	43543	32818	32711	
2099	0	37467	34728	43280	32755	32707	
2100	0	38356	34196	43747	32799	32917	
2101	0	39264	33765	44838	32617	32944	
2102	0	39815	33591	42832	32542	32861	
2103	0	39168	33686	34338	32675	32727	
2104	0	37912	33252	19254	32453	32848	
2105	0	36584	31936	11439	32584	32962	
2106	0	34504	30368	11355	33111	32833	
2107	0	31511	29880	21572	33253	32736	
2108	0	28587	29911	31499	32851	32784	
2109	0	25540	30608	34343	33032	32899	
2110	0	24836	31691	33249	33081	32727	
2111	0	26414	31861	33146	32839	32787	
2112	0	30209	32466	36770	32726	32889	
2113	0	33752	33238	40616	32687	33056	
2114	0	35470	33607	42642	32823	33058	
2115	0	35924	33211	37609	33159	32873	
2116	0	34569	32451	38821	33013	32759	
2117	0	33224	32562	35633	32763	32702	
2118	0	32042	32589	27931	32589	32793	
2119	0	31397	32437	20263	32785	32980	
2120	0	30992	32459	17027	32821	33047	
2121	0	31396	32854	23641	32918	32937	
2122	0	31492	33767	34880	32749	32652	
2123	0	30154	34639	38962	32434	32775	
2124	0	28709	34841	35844	32399	32884	
2125	0	28240	34375	31987	32704	32944	
2126	0	28622	33449	28377	33095	32685	
2127	0	29601	32259	28741	33095	32848	
2128	0	31982	31617	34513	32698	32941	
2129	0	34682	31568	39085	32446	32736	
2130	0	36147	32543	39352	32321	32736	
2131	0	37496	33234	34141	32403	32712	
2132	0	37885	33543	28844	32500	32762	
2133	0	37757	33155	29623	32627	32895	
2134	0	35335	32462	33277	32480	33039	
2135	0	33251	32093	35281	32562	32829	
2136	0	31742	32598	36587	32590	32767	
2137	0	30818	32847	40251	32715	32793	
2138	0	30992	33063	42183	32930	32953	
2139	0	31184	32564	37968	32898	32889	
2140	0	30282	32547	28828	32821	32740	
2141	0	29247	31876	24957	33048	32908	
2142	0	28512	31872	24506	33078	32818	
2143	0	29045	31785	22048	33095	32738	
2144	0	30242	31967	24170	32759	32702	
2145	0	31165	32292	32988	32684	32716	
2146	0	33875	32893	39299	32640	32709	
2147	0	37059	33759	42621	32482	32711	
2148	0	39552	34020	45884	32515	33020	
2149	0	41212	34358	44544	32687	32959	
2150	0	40656	33893	37854	33035	32688	
2151	0	38342	33474	33233	33176	32701	
2152	0	35499	32477	27887	32895	32805	
2153	0	32514	31876	21962	32853	33006	
2154	0	30913	31303	27886	32770	32839	
2155	0	30890	31883	37655	32648	32694	
2156	0	32011	32419	42321	32661	32733	
2157	0	32609	32686	35033	32666	32944	
2158	0	32212	32533	24391	32755	32943	
2159	0	30629	32135	18901	32914	32726	
2160	0	28795	31536	21503	32937	32795	
2161	0	28020	31751	23559	32950	32863	
2162	0	28481	32723	26138	33131	32891	
2163	0	29976	33823	30326	33183	32949	
2164	0	31778	34135	33658	32929	32748	
2165	0	32155	34006	38727	32963	32820	
2166	0	32592	32986	41295	32881	32959	
2167	0	33877	32199	39337	32699	32959	
2168	0	34928	31278	33714	32667	32691	
2169	0	35104	31187	32048	32515	32759	
2170	0	35694	31975	34703	32587	32918	
2171	0	35104	33271	37746	32733	32995	
2172	0	33369	33827	38125	32821	32833	
2173	0	32182	34043	33392	32903	32813	
2174	0	32496	33145	26684	32688	32957	
2175	0	33576	32416	23106	32842	32820	
2176	0	33568	31045	26444	32793	32655	
2177	0	32948	30041	34674	32751	32930	
2178	0	31869	29949	40700	32587	32735	
2179	0	29556	30695	41314	32636	32841	
2180	0	28256	31922	40150	32723	32879	
2181	0	28713	33270	40527	32626	32908	
2182	0	29575	34455	41722	32813	32927	
2183	0	30700	35457	41065	33129	32719	
2184	0	32370	36002	40364	33055	32957	
2185	0	33358	36060	37016	32696	33008	
2186	0	34112	35809	29162	32640	32775	
2187	0	34489	35071	24127	32470	32755	
2188	0	33783	33686	29359	32759	32880	
2189	0	33360	31361	34383	32701	33031	
2190	0	33240	30248	29010	32802	32996	
2191	0	32840	29494	12312	32796	32967	
2192	0	33046	29616	4246	32972	32792	
2193	0	35077	30998	13537	32707	32685	
2194	0	35810	33177	26032	32868	32679	
2195	0	37299	35014	36359	32964	32932	
2196	0	39015	36016	37314	33032	32967	
2197	0	38842	35283	33906	33078	32939	
2198	0	37348	33067	34098	33257	32867	
2199	0	35560	30821	36985	33171	32768	
2200	0	33948	29179	36767	32775	32669	
2201	0	31038	28797	34847	32775	32889	
2202	0	27878	28809	33226	32670	32891	
2203	0	26266	29642	35435	32468	32932	
2204	0	24602	30600	39788	32563	32930	
2205	0	23680	31466	40967	32683	32944	
2206	0	24472	32576	42535	32808	32903	
2207	0	26988	33791	41963	32655	32711	
2208	0	29998	34768	37685	32565	32710	
2209	0	34624	35142	31288	32489	32713	
2210	0	39148	35227	32969	32402	32720	
2211	0	41724	34494	39019	32635	32966	
2212	0	41427	33487	42573	32816	33032	
2213	0	39751	32531	44099	32772	32775	
2214	0	35922	32401	41171	32861	32749	
2215	0	32641	32569	34601	32758	32873	
2216	0	30544	33479	32478	32664	33014	
2217	0	28782	33650	27440	32674	32848	
2218	0	28102	33512	13931	32748	32723	
2219	0	29134	31860	8795	32930	32771	
2220	0	31946	30494	9201	33207	32890	
2221	0	34324	29601	12874	32811	32959	
2222	0	35803	29371	17794	32751	32893	
2223	0	36154	30521	27246	32695	32993	
2224	0	35412	31728	37688	32837	32800	
2225	0	33767	32805	45838	32885	32704	
2226	0	30368	32939	48259	32837	32676	
2227	0	27920	33287	49938	32648	32812	
2228	0	27737	33625	51719	32432	32813	
2229	0	28709	34297	50093	32349	32839	
2230	0	30295	34520	41169	32464	32732	
2231	0	32681	35218	29468	32339	32746	
2232	0	34536	35877	22381	32455	32990	
2233	0	34608	36258	22851	32651	32982	
2234	0	33578	36108	32291	32937	32722	
2235	0	33159	35188	40651	33442	32909	
2236	0	33990	33000	40052	33428	32908	
2237	0	34610	30586	26496	33665	32809	
2238	0	33944	28756	9566	33336	32656	
2239	0	32809	28229	5257	33210	32646	
2240	0	31726	28999	11172	32724	32656	
2241	0	31182	30409	31607	32566	32737	
2242	0	31433	32347	40402	32436	32676	
2243	0	33230	33876	47723	32241	32730	
2244	0	35504	34047	48451	32363	32939	
2245	0	38025	33985	40685	32701	33033	
2246	0	38919	33661	35333	32675	33065	
2247	0	37850	34004	42209	32661	32855	
2248	0	36866	34078	48160	32655	32600	
2249	0	35219	34744	41794	32616	32741	
2250	0	33284	35068	24035	33056	32762	
2251	0	31423	33927	14298	33095	32816	
2252	0	30244	32447	21477	33136	32912	
2253	0	29423	31343	31969	33327	32738	
2254	0	28248	31047	34519	33045	32749	
2255	0	28004	31443	32135	32775	32748	
2256	0	29016	32121	25600	32915	32865	
2257	0	30710	31746	22329	32643	32981	
2258	0	32710	31084	26968	32491	32932	
2259	0	35822	30797	35840	32622	32931	
2260	0	37901	30370	43781	32742	32937	
2261	0	37602	29879	50820	32747	32860	
2262	0	35209	30779	57433	32996	32824	
2263	0	32881	31746	56912	33005	32726	
2264	0	31054	31760	46920	32799	32672	
2265	0	29300	31776	28292	32758	32725	
2266	0	28112	31912	11197	33115	32841	
2267	0	27004	31328	5119	33154	33007	
2268	0	27026	31197	6030	32815	32962	
2269	0	27348	31943	10317	31958	32895	
2270	0	28400	32946	24645	31965	32720	
2271	0	30185	34534	33487	32309	32649	
2272	0	32536	36038	38226	32568	32666	
2273	0	34414	37200	39888	32614	32899	
2274	0	34562	37681	34255	32839	32945	
2275	0	34576	37199	32890	32928	32943	
2276	0	35509	36322	39603	32924	32797	
2277	0	36320	34823	43628	32967	32687	
2278	0	36957	33159	40541	33136	32693	
2279	0	37226	31894	36508	33130	32700	
2280	0	35186	30837	33317	32808	32696	
2281	0	33036	29818	31143	32643	32702	
2282	0	31949	29276	28707	32716	32812	
2283	0	30644	28959	28440	32939	32893	
2284	0	31904	29838	35277	32871	32863	
2285	0	33796	30656	41607	33127	32910	
2286	0	33884	31993	43772	32914	32944	
2287	0	33386	32979	42503	32719	32759	
2288	0	32913	33351	37099	32581	32889	
2289	0	33229	33121	33549	32583	32967	
2290	0	32902	32291	32826	32554	32967	
2291	0	32713	31140	29219	32391	32999	
2292	0	31839	31143	23082	32727	32999	
2293	0	32033	31602	23983	33243	32765	
2294	0	33409	32627	30345	32839	32876	
2295	0	33636	33095	36950	32763	32875	
2296	0	32284	34296	39963	32775	32775	
2297	0	31067	35003	39899	32741	32738	
2298	0	30734	35834	32559	32651	32824	
2299	0	31350	35941	30502	32592	32877	
2300	0	31548	35291	36772	32671	32952	
2301	0	32391	33995	39791	32722	32731	
2302	0	33675	32344	35793	32774	32902	
2303	0	34237	31086	26998	32890	32919	
2304	0	34061	30495	27299	32799	32807	
2305	0	33862	31124	35460	32812	32728	
2306	0	33486	31655	39255	32807	32682	
2307	0	34311	32465	26944	32933	32762	
2308	0	34055	32240	12993	32948	32973	
2309	0	33032	32103	13989	32873	32895	
2310	0	31986	32603	22735	32671	32918	
2311	0	31998	32903	27254	32643	32677	
2312	0	32242	33430	29077	32821	32706	
2313	0	32454	33589	31779	32903	32770	
2314	0	34325	33623	35525	32817	32877	
2315	0	36546	33466	37684	32839	32950	
2316	0	38432	33093	38435	32736	32954	
2317	0	39347	32990	38697	32703	32914	
2318	0	38862	32985	39679	32727	32896	
2319	0	36626	32312	41075	32775	32803	
2320	0	33546	31456	34006	32963	32775	
2321	0	29720	31211	23462	32743	32775	
2322	0	27574	31678	22287	32509	32757	
2323	0	26876	33426	31835	32416	32736	
2324	0	26723	33971	39623	32692	33032	
2325	0	27009	34170	38523	32738	33083	
2326	0	27716	34479	34104	33095	33013	
2327	0	28991	34512	32598	33067	33011	
2328	0	29878	34338	35965	32789	32871	
2329	0	31078	33124	40429	32639	32767	
2330	0	31239	31032	42496	32936	32739	
2331	0	31194	28742	42618	33259	32931	
2332	0	30882	27562	34714	33245	32815	
2333	0	31168	27717	21199	33113	32649	
2334	0	32736	29489	13131	32880	32664	
2335	0	35507	31453	19645	32824	32775	
2336	0	36211	33010	32562	32608	32719	
2337	0	35907	33629	38951	32520	32771	
2338	0	34389	33283	35070	32590	32899	
2339	0	31579	33381	32312	32537	33019	
2340	0	29898	34218	37070	32670	32961	
2341	0	29152	34823	43757	32775	32793	
2342	0	29988	34648	42989	32671	32697	
2343	0	30272	33733	30249	32448	32744	
2344	0	29960	33362	17689	32656	32647	
2345	0	31436	33067	15356	32792	32742	
2346	0	34502	33340	25562	32748	32857	
2347	0	37368	34192	38390	32796	32868	
2348	0	39758	33939	40510	32742	32959	
2349	0	40448	33232	37280	32765	32774	
2350	0	40433	32744	32741	32786	32935	
2351	0	39711	32608	33567	32611	32967	
2352	0	38834	32359	34905	32769	32909	
2353	0	37843	32039	34882	32617	32886	
2354	0	36192	31723	29808	32913	32981	
2355	0	32301	31542	25248	32795	32711	
2356	0	28973	31696	23106	32967	32722	
2357	0	26386	32403	27391	33094	32877	
2358	0	25336	32741	34277	33177	32964	
2359	0	26109	33119	40279	33141	32916	
2360	0	27891	33129	42307	33145	32775	
2361	0	30693	33438	41662	32868	32768	
2362	0	34176	33359	41227	32551	32652	
2363	0	37326	33328	40921	32438	32539	
2364	0	39451	32888	40708	32601	32637	
2365	0	39098	31687	42646	32720	32711	
2366	0	37096	29808	45107	32760	32711	
2367	0	34562	28153	46727	32670	32983	
2368	0	32445	27837	42415	32537	32997	
2369	0	30581	28918	34881	32598	32939	
2370	0	28136	30995	22585	32560	32754	
2371	0	26441	32992	8896	32546	32713	
2372	0	26273	34867	5696	32539	32709	
2373	0	26921	35592	6823	32574	32754	
2374	0	27999	35698	10865	32410	32898	
2375	0	28602	35968	17082	32775	32902	
2376	0	30373	35984	26220	32933	32896	
2377	0	32549	35979	34920	33069	32902	
2378	0	34502	35099	41914	33139	32939	
2379	0	36091	33564	48406	33149	32865	
2380	0	37492	31787	50477	33137	32852	
2381	0	37447	31184	48351	33287	32736	
2382	0	35009	30782	46229	33299	32711	
2383	0	32236	30702	45028	33145	32643	
2384	0	29993	30793	37334	33095	32836	
2385	0	28978	31206	28562	33010	32862	
2386	0	29632	31744	23706	32936	32872	
2387	0	32421	32435	23705	32549	32829	
2388	0	33984	32942	17328	32568	32849	
2389	0	34802	32809	12064	32131	32910	
2390	0	34808	32927	17113	32425	32890	
2391	0	35332	33166	30472	32698	32929	
2392	0	36093	32836	40919	32590	33031	
2393	0	36368	32775	43075	32515	32972	
2394	0	36225	32898	39811	32551	32985	
2395	0	36528	33050	38501	32611	32815	
2396	0	36307	33263	37575	32675	32829	
2397	0	34695	33490	37263	32974	32716	
2398	0	32654	33327	40477	33080	32775	
2399	0	29215	33317	45836	33152	32905	
2400	0	26826	32924	51632	33187	32962	
2401	0	26165	33020	54511	32582	32938	
2402	0	25522	32873	52423	32278	32815	
2403	0	24578	33296	40248	32577	32707	
2404	0	24899	33246	19186	33148	32850	
2405	0	26840	33003	1903	33236	32962	
2406	0	29661	33590	18	32581	32992	
2407	0	34216	33647	3383	32441	32835	
2408	0	38248	33304	15787	32320	32774	
2409	0	41530	32848	29554	32397	32884	
2410	0	42066	33014	42868	32244	32920	
2411	0	41208	32652	46896	32878	32896	
2412	0	41507	32260	39623	32977	32909	
2413	0	40425	32436	23312	32896	32785	
2414	0	37712	33206	10620	33046	32699	
2415	0	35128	34781	17907	33120	32736	
2416	0	34494	35816	30567	33230	32857	
2417	0	33940	35335	40802	33120	32736	
2418	0	31734	33243	46616	33035	32728	
2419	0	29614	29952	49573	33180	32787	
2420	0	27448	26107	54312	33014	32728	
2421	0	25522	23970	55928	32863	32702	
2422	0	24819	24640	53831	32673	32775	
2423	0	25848	27305	50001	32571	32945	
2424	0	27300	30327	47885	32660	32925	
2425	0	30525	32518	46293	32669	32825	
2426	0	32672	34218	26233	32704	32708	
2427	0	34624	35728	32	32407	32660	
2428	0	36204	36742	17	32301	32666	
2429	0	36358	37051	2354	32337	32632	
2430	0	35972	37501	6550	32334	32698	
2431	0	35084	38308	28218	32560	32927	
2432	0	33544	39131	35746	32877	32898	
2433	0	32608	38357	38347	32827	32876	
2434	0	32212	36342	41018	32998	32707	
2435	0	31149	33419	42168	33056	32683	
2436	0	30116	30670	42556	32985	32925	
2437	0	29952	28024	46873	33004	32975	
2438	0	30892	26418	50868	32929	32939	
2439	0	32010	26150	50887	32914	32898	
2440	0	34124	26907	44871	32888	32775	
2441	0	37772	27729	35444	32992	32688	
2442	0	40046	28522	24316	32824	32838	
2443	0	41452	29592	12806	32532	32804	
2444	0	40696	31209	10255	32645	32834	
2445	0	37580	32675	21219	32762	32895	
2446	0	35184	34492	36274	32635	32944	
2447	0	33264	36605	43865	32665	32959	
2448	0	31566	37563	40338	32787	32843	
2449	0	30784	37883	36275	32975	32883	
2450	0	29576	36774	34495	33043	32919	
2451	0	28072	34863	32741	32870	32941	
2452	0	27538	32903	29490	32882	32885	
2453	0	27120	32000	32617	32728	32834	
2454	0	27448	32094	37533	32461	32804	
2455	0	27530	32793	39943	32665	32896	
2456	0	26302	32513	37319	32962	32740	
2457	0	24873	31867	29413	32746	32758	
2458	0	23516	30933	19397	32896	32660	
2459	0	23016	30691	18530	33068	32724	
2460	0	23880	30047	24297	33132	32806	
2461	0	27743	30027	31934	32987	32933	
2462	0	33930	30839	37968	32813	33021	
2463	0	41041	32348	42242	32489	32888	
2464	0	46061	33479	39732	32377	32720	
2465	0	47672	34176	36551	32382	32800	
2466	0	45309	34339	33544	32555	32850	
2467	0	40332	34243	27684	32704	32850	
2468	0	35563	34407	24448	32647	32974	
2469	0	31756	34335	22739	32869	32912	
2470	0	29544	34105	22322	33011	32711	
2471	0	28434	33438	19890	32775	32718	
2472	0	28825	33005	17715	32967	32722	
2473	0	30631	32509	24771	32753	32740	
2474	0	32877	32393	36008	32848	32712	
2475	0	34552	32390	47915	32892	32853	
2476	0	36546	32737	53895	32674	32747	
2477	0	37472	32991	56457	32749	32645	
2478	0	36782	33354	48507	32675	32673	
2479	0	34306	33413	42944	32582	32812	
2480	0	31919	33266	43331	32576	33011	
2481	0	29847	33143	40299	32613	33023	
2482	0	28306	33187	30456	32744	32815	
2483	0	26400	33060	20774	32766	32644	
2484	0	25318	33008	13603	32830	32850	
2485	0	26936	32913	13579	32884	32997	
2486	0	30418	32813	17104	32784	32937	
2487	0	35246	32194	26105	32932	32680	
2488	0	37362	31793	30661	32914	32901	
2489	0	37939	31839	34347	32704	33035	
2490	0	37799	31977	36085	32773	32967	
2491	0	36674	32481	30459	32667	32975	
2492	0	36232	32605	25904	32930	32973	
2493	0	35042	32902	30964	32908	32911	
2494	0	34256	33219	35787	32949	32861	
2495	0	33186	33267	37801	33020	32750	
2496	0	31744	33047	41042	32829	32759	
2497	0	31291	32834	47258	32931	32736	
2498	0	31271	32982	46691	32903	32871	
2499	0	31217	33074	42232	32487	32933	
2500	0	31366	33414	46389	32374	32820	
2501	0	30816	34034	46495	32535	32813	
2502	0	31751	34709	36506	32739	32775	
2503	0	32997	34503	22303	33026	32973	
2504	0	33366	33426	13189	32928	32880	
2505	0	31973	32048	8531	32509	32888	
2506	0	30778	31371	15273	32915	32915	
2507	0	29897	30567	23769	33188	32937	
2508	0	31197	30809	26823	33084	32733	
2509	0	32426	31239	26976	32870	32659	
2510	0	33309	31516	26894	32535	32753	
2511	0	34090	31559	25587	32637	32761	
2512	0	33670	31766	26913	32807	32953	
2513	0	32284	32314	32696	32837	32966	
2514	0	31488	32978	38777	32843	32934	
2515	0	31748	33447	42704	32891	32943	
2516	0	32045	33231	45776	32941	32855	
2517	0	31046	33141	47983	32941	32721	
2518	0	32184	34034	48283	33002	32677	
2519	0	34632	35281	46323	32790	32762	
2520	0	35640	34950	41325	32839	32863	
2521	0	35992	33662	33024	32930	32945	
2522	0	36406	31840	28054	32775	33008	
2523	0	37468	29878	28048	32675	33005	
2524	0	37084	28406	35184	32537	32833	
2525	0	35068	28612	44747	32692	32705	
2526	0	33216	30181	44958	32503	32831	
2527	0	31371	31213	30502	32540	32902	
2528	0	30352	31720	14540	32688	32967	
2529	0	30048	31395	12960	32573	32700	
2530	0	31725	31462	23162	32760	32710	
2531	0	33772	32274	31335	32920	32695	
2532	0	34386	33062	33861	33159	32695	
2533	0	34276	33972	34307	32843	32759	
2534	0	33961	33943	34574	32659	32718	
2535	0	33007	32118	34424	32787	32751	
2536	0	32633	30438	36525	32736	32953	
2537	0	32813	29499	39042	32753	32903	
2538	0	32422	30395	38761	32895	32947	
2539	0	31138	32439	37977	32739	32954	
2540	0	29549	35230	41341	32509	32856	
2541	0	28174	36027	41926	32398	32807	
2542	0	26697	36114	32401	32534	32999	
2543	0	25997	35143	24507	32736	32967	
2544	0	27213	33671	24427	33167	32817	
2545	0	29581	32631	23725	32985	32671	
2546	0	32156	32732	23188	32824	32832	
2547	0	35924	33696	23751	32592	32910	
2548	0	39239	34159	25763	32789	32666	
2549	0	41238	34067	25823	33040	32692	
2550	0	41673	32715	31471	33066	32851	
2551	0	40744	31647	37126	33039	32808	
2552	0	38002	31153	41899	33026	32741	
2553	0	35582	31450	43035	32839	32795	
2554	0	33027	32553	42894	32771	32875	
2555	0	30191	33217	40315	32462	32915	
2556	0	27552	32837	39014	32514	32929	
2557	0	25687	32340	43702	32690	32928	
2558	0	25413	32276	42351	32839	32913	
2559	0	25445	32755	28520	32773	33011	
2560	0	26552	33146	10672	32871	32962	
2561	0	28066	33530	5875	32918	33047	
2562	0	30637	34000	14233	32973	33001	
2563	0	33250	33759	21081	32630	33014	
2564	0	35497	33948	24109	32455	32873	
2565	0	38258	33844	29791	32715	32868	
2566	0	39564	33757	38754	32805	32758	
2567	0	38689	32952	44831	32793	32738	
2568	0	35809	32131	48157	32698	32813	
2569	0	32843	31687	47623	32943	32818	
2570	0	30296	31389	43852	32927	32963	
2571	0	29146	32031	37469	32899	32733	
2572	0	28666	32564	32372	32889	32725	
2573	0	29511	32499	31010	32711	32624	
2574	0	31609	32683	31614	32820	32878	
2575	0	33479	33195	35200	32696	32945	
2576	0	35165	33784	37429	32696	32818	
2577	0	36204	34363	31780	32582	32680	
2578	0	35376	34552	22650	32785	32829	
2579	0	34704	34326	14023	32608	32984	
2580	0	34292	34339	13008	32950	32784	
2581	0	34521	33923	23998	33103	32988	
2582	0	34439	33773	31015	32835	33010	
2583	0	32789	32965	33454	33009	33004	
2584	0	31388	31687	35016	32918	32898	
2585	0	31489	29440	40914	33048	32745	
2586	0	32683	28235	48381	33139	32760	
2587	0	32640	28004	50901	32732	32950	
2588	0	32725	30011	51162	32660	32930	
2589	0	33341	32033	44699	32704	32839	
2590	0	33186	33402	36850	32524	32722	
2591	0	33000	33970	31840	32533	32899	
2592	0	32747	34153	29033	32909	32675	
2593	0	32091	33786	24063	32750	32909	
2594	0	30680	33454	25105	32867	32592	
2595	0	29163	33095	26314	33014	32765	
2596	0	28704	33469	26777	33250	32976	
2597	0	27908	33241	27662	32747	32913	
2598	0	27736	32195	28401	32339	32886	
2599	0	29472	32421	32065	32187	32775	
2600	0	33594	32845	32557	32318	32858	
2601	0	37842	32646	28426	32763	32926	
2602	0	40379	32241	25335	33017	32944	
2603	0	41149	31890	29591	33575	32756	
2604	0	40850	30755	36280	33683	32775	
2605	0	39495	30389	45202	33206	32928	
2606	0	37213	30677	48519	32644	32751	
2607	0	34046	31544	40820	32243	32733	
2608	0	31134	32794	21626	32672	32676	
2609	0	29440	33603	13189	32766	32701	
2610	0	27792	33935	23240	32797	32873	
2611	0	27393	33516	34557	32957	32971	
2612	0	26706	32626	42046	32718	32971	
2613	0	26859	32679	43354	32594	32711	
2614	0	27924	33534	44699	32459	32711	
2615	0	28810	35072	46363	32297	32738	
2616	0	28330	36331	43449	32283	32981	
2617	0	28754	35975	41887	32469	33063	
2618	0	30636	34752	36928	32746	32930	
2619	0	33204	32900	28809	33129	32736	
2620	0	35719	31220	18597	33033	32677	
2621	0	37264	30249	7607	32641	32644	
2622	0	38082	30330	3856	32500	32839	
2623	0	37792	31114	10975	32860	32949	
2624	0	37172	31433	27002	32745	32866	
2625	0	35912	31453	39874	32550	32784	
2626	0	34994	31711	47209	32564	32707	
2627	0	34112	31720	46246	32791	32793	
2628	0	32301	32151	42589	33274	32935	
2629	0	30034	32455	40515	32969	32910	
2630	0	28144	32304	38168	32744	32837	
2631	0	29182	31686	28799	32576	32732	
2632	0	32049	31615	21386	32898	32748	
2633	0	36276	32939	17678	32860	32839	
2634	0	39490	34308	23789	32832	32742	
2635	0	40632	34875	35312	32820	32640	
2636	0	39010	33810	45757	32809	32930	
2637	0	36018	32118	50450	33004	33002	
2638	0	34043	30818	54622	33037	32943	
2639	0	31931	30189	51869	32950	32984	
2640	0	30646	30302	44079	32907	32906	
2641	0	29972	31069	28608	32680	32768	
2642	0	29464	32092	15612	32592	32753	
2643	0	29809	33418	9638	32846	32878	
2644	0	31296	34480	7183	32791	32984	
2645	0	32736	35279	17413	32863	32728	
2646	0	34469	35634	24900	32737	32918	
2647	0	35432	34857	26935	32855	32911	
2648	0	34787	33765	32067	32620	32751	
2649	0	34036	33415	38445	32516	32920	
2650	0	32963	33206	44039	32495	33037	
2651	0	31303	32868	45938	32759	32775	
2652	0	29812	32736	46827	33093	32990	
2653	0	28910	31879	46636	33124	32925	
2654	0	28790	31275	42935	33035	32743	
2655	0	29341	31305	34675	32873	32697	
2656	0	30106	31388	25445	32752	32688	
2657	0	30998	31798	22275	32509	32683	
2658	0	31069	32233	26733	32610	32659	
2659	0	31213	32671	35270	32589	32720	
2660	0	31715	32607	41543	32923	32808	
2661	0	32060	32945	43456	32993	32938	
2662	0	32072	33351	43603	33037	32944	
2663	0	31968	33399	40071	32793	32903	
2664	0	32616	33700	36225	32566	32944	
2665	0	33152	33814	38112	32630	32908	
2666	0	33563	33473	41970	32640	32923	
2667	0	33068	33561	35232	32591	32970	
2668	0	32596	33093	17252	32824	32952	
2669	0	31712	32592	1906	32902	33032	
2670	0	31229	32309	2450	32925	32984	
2671	0	31440	31928	16391	32952	32920	
2672	0	32390	31899	28604	33047	32903	
2673	0	33186	31943	33149	32999	32903	
2674	0	32722	32007	31223	33024	32960	
2675	0	31377	32749	31388	32861	32719	
2676	0	31224	33568	36723	32711	32805	
2677	0	33572	34150	37636	32667	32711	
2678	0	36392	34491	37431	32548	32903	
2679	0	37296	34331	34669	32544	32936	
2680	0	38407	34145	33115	32530	32950	
2681	0	38994	33553	34619	32551	32886	
2682	0	38590	32400	37063	32896	32710	
2683	0	37132	31667	38919	33373	32749	
2684	0	34758	30940	41699	33411	32835	
2685	0	31652	31035	43014	32899	32833	
2686	0	29541	31266	45080	32151	32938	
2687	0	28013	32336	45270	31814	32947	
2688	0	27760	34060	41595	32135	32905	
2689	0	28819	35457	34785	32548	32796	
2690	0	29923	35783	24034	33133	32717	
2691	0	32138	35828	16348	33355	32877	
2692	0	35296	35108	14758	33440	32948	
2693	0	37880	34678	21619	33339	32756	
2694	0	38172	33167	31397	32950	32911	
2695	0	35936	30882	30784	32742	32937	
2696	0	32405	28104	28688	32835	32900	
2697	0	29452	25800	30300	32775	32835	
2698	0	26231	25158	38902	32733	32677	
2699	0	23360	26095	43778	32638	32635	
2700	0	23027	28755	45278	32513	32692	
2701	0	24603	32797	40179	32439	32868	
2702	0	27571	35695	35570	32553	32967	
2703	0	31224	37226	27433	32616	32960	
2704	0	35335	36615	18534	32775	32797	
2705	0	38232	34301	18978	32949	32804	
2706	0	38946	32371	24379	32827	32801	
2707	0	38889	31337	26982	32759	33005	
2708	0	38941	31620	32173	32728	32730	
2709	0	39896	32245	35829	32763	32988	
2710	0	40792	33408	38680	33140	32975	
2711	0	40818	33182	37439	32995	32975	
2712	0	40611	32208	33495	32937	32909	
2713	0	39969	30912	36426	32925	32857	
2714	0	38720	29975	42085	33011	32793	
2715	0	37170	30458	43709	32873	32839	
2716	0	35179	31636	42831	32694	32799	
2717	0	31926	33162	42050	32687	32798	
2718	0	28202	34143	39634	32751	32877	
2719	0	25225	34808	35772	32789	32871	
2720	0	23035	34165	29426	32691	32881	
2721	0	22372	33476	24520	32940	33001	
2722	0	22752	32753	16542	33000	32972	
2723	0	24360	32325	14741	32925	32935	
2724	0	26648	32829	28290	32704	32904	
2725	0	29268	33735	41991	32495	33016	
2726	0	32576	35611	45495	32353	32915	
2727	0	35382	36630	36750	32312	32765	
2728	0	38546	36920	29388	32651	32676	
2729	0	38825	35668	17714	33094	32658	
2730	0	37208	33368	14214	33055	32759	
2731	0	34788	30590	21118	32752	32915	
2732	0	31844	28644	32014	32524	32851	
2733	0	29097	28530	39878	33058	32924	
2734	0	28272	29319	44434	33143	32950	
2735	0	29278	30131	47677	33046	32973	
2736	0	31915	30994	48563	32998	32997	
2737	0	35959	31875	43501	32711	32717	
2738	0	39363	32185	37752	32711	32697	
2739	0	40440	32195	32368	32698	32837	
2740	0	38200	32525	24714	32633	32803	
2741	0	34489	33075	23796	32596	32834	
2742	0	29976	34230	22102	32880	33069	
2743	0	28930	35083	24327	33130	32911	
2744	0	29476	36083	27471	33181	32732	
2745	0	28808	36010	35259	32937	32803	
2746	0	28271	35013	40997	32903	32903	
2747	0	27774	33838	37944	32647	32831	
2748	0	27374	32162	33767	32482	32717	
2749	0	27226	31517	33443	32534	32752	
2750	0	28182	30792	41680	32614	32899	
2751	0	29868	31126	41888	32786	32925	
2752	0	32926	32405	30186	32696	32960	
2753	0	36617	33038	18121	32605	32736	
2754	0	39304	33504	14194	32420	32928	
2755	0	40288	33840	14075	32411	32952	
2756	0	40228	33490	20766	32598	32645	
2757	0	40368	33000	28701	32685	32768	
2758	0	39512	32502	36477	32992	32715	
2759	0	37668	32440	42528	33175	32882	
2760	0	36148	32603	45983	33074	32885	
2761	0	35288	33117	47407	33421	32817	
2762	0	32320	33612	48165	33001	32730	
2763	0	30414	33453	45951	32525	32905	
2764	0	29013	33793	38883	32212	32844	
2765	0	28396	33512	24184	32295	32764	
2766	0	29082	33080	15123	32568	32860	
2767	0	30444	32352	16809	32453	32991	
2768	0	31624	33126	27905	32873	32775	
2769	0	31866	33273	35881	32922	32918	
2770	0	32654	32017	39341	33143	32953	
2771	0	34051	31154	42963	33327	32742	
2772	0	35072	30096	46359	32996	32909	
2773	0	34816	29539	46932	32809	32981	
2774	0	33405	28815	43355	32802	32698	
2775	0	31958	27842	35130	32667	32692	
2776	0	29727	27760	22632	32622	32869	
2777	0	27380	28851	15496	32559	32981	
2778	0	25986	31096	20957	32322	32798	
2779	0	24708	34560	27623	32349	32704	
2780	0	25105	37581	26648	32461	32723	
2781	0	28088	40529	24311	32539	32804	
2782	0	31826	42403	28728	32664	32751	
2783	0	34842	42369	36480	32909	32735	
2784	0	36656	40347	40055	33193	32886	
2785	0	38268	35891	32121	33658	32952	
2786	0	38403	30720	23374	33686	32937	
2787	0	37824	26145	25646	33509	32775	
2788	0	35570	23135	35525	33232	32788	
2789	0	33488	23356	45458	32865	32717	
2790	0	32699	25982	49100	32664	32596	
2791	0	31416	29298	49428	32364	32563	
2792	0	30661	32464	49776	32532	32768	
2793	0	28658	35184	45789	32516	32839	
2794	0	27058	36423	32505	32428	32889	
2795	0	26992	35966	22227	32522	32882	
2796	0	28858	34075	21605	32913	32786	
2797	0	32080	32013	25514	32973	32870	
2798	0	36708	30586	25972	33068	32704	
2799	0	39776	30112	17368	32775	32746	
2800	0	41784	30252	10107	32746	32978	
2801	0	43216	30620	15462	32793	32766	
2802	0	42882	32192	26202	32828	32829	
2803	0	41479	32068	34810	32743	33002	
2804	0	38520	31621	41538	32595	32937	
2805	0	35274	31776	47512	32705	32815	
2806	0	33710	32612	55457	32587	32770	
2807	0	32219	33863	59442	32493	33009	
2808	0	31561	34387	56666	32450	32970	
2809	0	31128	34674	53880	32480	32999	
2810	0	29544	35346	28235	32592	32912	
2811	0	26708	36183	30	32714	32850	
2812	0	24014	37272	17	32880	32698	
2813	0	22994	38161	3645	32771	32809	
2814	0	24252	38330	7627	32608	32851	
2815	0	27236	36712	21097	32818	32682	
2816	0	30743	33908	31666	33144	32772	
2817	0	34359	29999	39080	33305	32813	
2818	0	37768	27388	47450	33316	32878	
2819	0	39790	27143	52259	32885	32840	
2820	0	39832	27869	55339	32955	32759	
2821	0	38957	29817	55623	32978	32812	
2822	0	37704	31763	52160	32805	32890	
2823	0	36323	32839	46354	32620	32700	
2824	0	34366	32825	33188	32632	32793	
2825	0	32001	32506	10927	32328	32890	
2826	0	29824	32093	900	32167	32910	
2827	0	28996	32199	4221	32752	32720	
2828	0	28415	32498	22067	33013	32864	
2829	0	28000	33472	31850	32850	32921	
2830	0	27818	33606	35399	32899	32964	
2831	0	27467	33653	35268	32728	32902	
2832	0	27490	33858	36315	32831	32751	
2833	0	28648	34243	40719	32738	32917	
2834	0	30716	34038	44111	32805	32903	
2835	0	32492	33902	51184	32738	32935	
2836	0	32720	33325	54047	32733	32926	
2837	0	32920	33060	52709	33145	32903	
2838	0	32713	33077	47800	33219	32869	
2839	0	31560	32819	33116	32984	32678	
2840	0	30060	32932	15954	32886	32674	
2841	0	29030	33189	12715	32799	32763	
2842	0	28787	33287	17390	32579	32944	
2843	0	29085	33415	18266	32731	33011	
2844	0	30211	33035	20873	32807	32972	
2845	0	32005	32808	27517	32768	33040	
2846	0	33864	32862	37334	32573	32999	
2847	0	35392	32615	45063	32655	32770	
2848	0	38421	32709	45789	32608	32753	
2849	0	41786	33044	34793	32656	32820	
2850	0	43344	33552	22069	32839	32907	
2851	0	43182	33746	16884	32797	32995	
2852	0	41019	33618	24153	32511	32925	
2853	0	38192	33138	32943	32526	32903	
2854	0	34950	32752	32663	32531	32899	
2855	0	32374	31768	29607	32475	32774	
2856	0	30610	30726	31826	32709	32717	
2857	0	28696	29995	34925	33127	32757	
2858	0	28592	30527	32683	33278	32703	
2859	0	28816	32718	29841	32975	32711	
2860	0	29234	34062	33159	32937	32744	
2861	0	30794	34626	34280	33316	32813	
2862	0	34525	33607	34355	33087	32741	
2863	0	37344	30377	36276	33051	32959	
2864	0	37319	27767	38861	32869	32818	
2865	0	35440	27378	42206	32622	32704	
2866	0	33057	28723	43693	32330	32855	
2867	0	29068	31751	41635	32455	32984	
2868	0	26020	35335	39243	32629	32926	
2869	0	25200	37709	39277	32491	32703	
2870	0	26956	39252	34584	32696	32753	
2871	0	29770	39884	25142	32853	32800	
2872	0	33498	39154	18064	32815	32922	
2873	0	37605	36537	19029	32922	32966	
2874	0	40312	32730	25555	33153	32876	
2875	0	41700	28785	30809	33044	32812	
2876	0	41072	25557	35950	32937	32850	
2877	0	39485	24263	40209	32661	32677	
2878	0	37069	24070	44546	32609	32679	
2879	0	34744	25453	42503	32556	32775	
2880	0	32763	28019	37418	32617	32847	
2881	0	31648	30898	33425	32405	32861	
2882	0	30266	33620	28232	32457	32899	
2883	0	27794	34961	24982	32734	32997	
2884	0	26271	35796	29762	32731	32944	
2885	0	25376	36794	34283	33032	32761	
2886	0	25333	37206	33713	33235	32671	
2887	0	26254	36069	32603	33256	32839	
2888	0	28802	34275	35481	32981	32989	
2889	0	32418	32338	42541	32720	32743	
2890	0	35034	31943	47555	32512	32832	
2891	0	35368	32321	45351	32323	32890	
2892	0	33816	33418	41471	32561	32865	
2893	0	31603	34214	34168	32924	32979	
2894	0	29678	33922	14218	32960	32965	
2895	0	27981	32850	165	33281	32861	
2896	0	27257	31163	2923	33093	32789	
2897	0	28551	30315	6914	32847	32879	
2898	0	30794	31298	24442	32564	32758	
2899	0	32596	32754	45862	32662	32892	
2900	0	33472	33885	52172	32647	32990	
2901	0	35032	34704	45211	32461	32936	
2902	0	37028	35037	30272	32473	32784	
2903	0	38812	34322	24866	32422	32775	
2904	0	39469	33268	34274	32490	32756	
2905	0	38840	32480	46432	32476	32710	
2906	0	38540	32148	51033	32718	32796	
2907	0	38726	32249	46158	32839	32774	
2908	0	37344	32493	31980	32884	32813	
2909	0	35876	32495	26377	32923	32902	
2910	0	34310	32406	32634	32825	32850	
2911	0	32223	32375	35226	32860	32768	
2912	0	30800	32407	22922	32992	32732	
2913	0	28924	32441	11907	33064	32817	
2914	0	27740	32672	20622	33193	32868	
2915	0	27661	33110	33079	33138	32750	
2916	0	28896	33530	39591	32914	32724	
2917	0	30912	33583	38871	32805	32805	
2918	0	30907	33464	36614	32625	32839	
2919	0	30473	32927	29407	32615	32765	
2920	0	30429	32495	28802	32801	32741	
2921	0	30508	32113	30478	32868	32641	
2922	0	30046	31981	30855	32775	32773	
2923	0	30546	32377	32960	32919	32940	
2924	0	31812	32821	34532	32739	32935	
2925	0	32258	33549	35753	32775	32671	
2926	0	33227	34105	37831	32891	32885	
2927	0	34468	34627	38317	32744	32654	
2928	0	35820	34533	42461	32758	32671	
2929	0	36893	33838	47186	32797	32705	
2930	0	37674	32360	44055	32879	32797	
2931	0	37179	30625	38194	32903	32857	
2932	0	36576	29678	35760	32755	32929	
2933	0	35488	29863	30727	32813	32909	
2934	0	33407	31399	27663	32754	32975	
2935	0	33415	33415	24552	32472	32984	
2936	0	34267	34862	19878	32647	32981	
2937	0	34629	34541	18644	32731	32966	
2938	0	34800	33337	22398	32945	32973	
2939	0	34762	31933	27520	33025	32967	
2940	0	34128	31184	21897	32718	32932	
2941	0	33564	32115	19269	32733	32967	
2942	0	32248	33395	28167	32454	32852	
2943	0	31181	34322	39162	32532	32912	
2944	0	30176	34418	46073	32805	32973	
2945	0	29423	33655	47463	33064	32893	
2946	0	29308	31487	40134	33090	32763	
2947	0	29964	29231	30663	33139	32907	
2948	0	31051	28113	27877	32961	33039	
2949	0	31780	28558	30965	32934	32989	
2950	0	30744	29895	30352	33159	32835	
2951	0	30836	30947	27448	33023	32687	
2952	0	31045	31847	31239	32876	32692	
2953	0	30288	32919	40746	32781	32672	
2954	0	28666	33426	45152	32619	32715	
2955	0	28564	33947	43834	32716	32681	
2956	0	30223	34406	39269	32903	32699	
2957	0	32815	33623	36453	32855	32800	
2958	0	34886	32228	34733	32756	32973	
2959	0	36192	31273	31250	32813	32725	
2960	0	36242	31123	29883	32517	32695	
2961	0	35446	32011	27007	32301	32947	
2962	0	34908	33639	23885	32135	32813	
2963	0	34566	35417	24674	32381	32763	
2964	0	33820	36227	31341	32404	33000	
2965	0	32804	36386	38248	32372	32896	
2966	0	31904	35774	40290	32575	32747	
2967	0	31486	34931	36306	32567	32720	
2968	0	32729	34044	35006	32603	32966	
2969	0	33544	33095	37499	32646	33023	
2970	0	34063	33030	39699	32978	32930	
2971	0	35244	33190	38703	33032	32740	
2972	0	36110	33061	41479	33069	32744	
2973	0	35514	32086	40159	33054	32827	
2974	0	34185	30457	33232	33068	32921	
2975	0	31728	28548	18686	33024	32856	
2976	0	28538	26931	5557	32944	32792	
2977	0	27154	26969	8258	32952	32663	
2978	0	27032	28578	19359	32708	32671	
2979	0	27709	30885	26622	32706	32959	
2980	0	29156	33175	34336	32455	33057	
2981	0	31188	34752	42937	32480	32893	
2982	0	33550	34712	48931	32570	32805	
2983	0	35512	34047	47463	32709	32685	
2984	0	37083	34115	37626	32710	32873	
2985	0	37767	34374	30205	32789	32985	
2986	0	37040	34582	30207	33142	33050	
2987	0	35676	34205	31289	33088	32887	
2988	0	35031	33793	29312	32943	32815	
2989	0	34834	33145	26573	32711	32735	
2990	0	34057	32421	24133	32521	32902	
2991	0	33474	32045	24583	32486	32863	
2992	0	32896	32055	28329	32710	32856	
2993	0	31917	32019	33110	32731	32921	
2994	0	30462	32244	41944	32832	32984	
2995	0	29296	32816	49752	33060	32902	
2996	0	28485	32997	51719	32813	32750	
2997	0	28729	32717	49627	32706	32743	
2998	0	29694	32402	47083	32775	32882	
2999	0	30864	32465	38248	32888	32802	
3000	0	33346	32984	21446	32769	32880	
3001	0	36644	33506	12316	32873	32954	
3002	0	39224	33735	9600	33040	32933	
3003	0	40319	33527	14177	32709	32711	
3004	0	40192	33323	22154	32888	33063	
3005	0	38469	33467	30252	32772	32767	
3006	0	35757	33390	35748	32967	32757	
3007	0	32932	33565	40293	32757	32690	
3008	0	30770	33379	44695	32839	32656	
3009	0	29769	33331	43760	33031	32643	
3010	0	29160	32869	38855	32940	32688	
3011	0	28030	32160	28189	32939	32677	
3012	0	28319	31602	19094	32967	32760	
3013	0	29430	31140	18390	32927	32763	
3014	0	31275	31065	26196	32927	32795	
3015	0	33054	31670	34944	32839	32922	
3016	0	33385	32690	40230	32722	32932	
3017	0	32648	33616	41159	32699	32986	
3018	0	31145	34529	39634	32555	32963	
3019	0	29949	34460	36359	32593	32717	
3020	0	28871	34374	36547	32406	32737	
3021	0	29314	33273	38681	32255	32988	
3022	0	30273	32135	40319	32486	32898	
3023	0	31283	31344	46708	32832	32763	
3024	0	31368	31213	50307	32984	32927	
3025	0	30695	31536	49631	33065	32709	
3026	0	30026	31927	47589	32711	32926	
3027	0	29101	33310	39928	32563	32936	
3028	0	28592	34690	26296	32499	32710	
3029	0	29258	35883	8183	32632	32915	
3030	0	31009	35513	303	32711	32942	
3031	0	31986	35039	4090	32743	32717	
3032	0	33332	34466	14150	33014	32807	
3033	0	34658	33287	23171	33127	32943	
3034	0	37242	32105	23086	33112	32749	
3035	0	39828	30822	22397	33680	32736	
3036	0	43226	29092	26932	33454	32950	
3037	0	46496	26470	36103	33234	32973	
3038	0	48378	24166	43480	32786	33040	
3039	0	47034	24303	45133	32307	33009	
3040	0	43328	27235	38311	32301	32950	
3041	0	39269	31615	37673	32476	32813	
3042	0	33977	34874	41055	32524	32844	
3043	0	28928	37003	40664	32649	32930	
3044	0	24405	37230	40395	32696	32813	
3045	0	20758	36299	41643	32496	32832	
3046	0	19208	35040	41577	32484	32768	
3047	0	21059	34631	41513	32647	32891	
3048	0	25177	35379	41091	32805	32839	
3049	0	29168	35399	38194	32993	32827	
3050	0	31397	34233	34258	32789	32853	
3051	0	31941	32545	31866	32848	32923	
3052	0	31160	31226	31858	32809	32963	
3053	0	29641	30721	31798	32809	32717	
3054	0	28360	30289	28805	32893	32748	
3055	0	29768	29667	26085	32767	32870	
3056	0	32530	29392	21040	32784	32911	
3057	0	34537	29747	18907	32765	32819	
3058	0	37569	30815	22865	32910	32861	
3059	0	40514	31797	31660	32827	32656	
3060	0	42347	32484	43090	32669	32756	
3061	0	42665	32703	46124	32623	32801	
3062	0	41555	34141	42592	32720	32890	
3063	0	39060	35222	36688	32773	32933	
3064	0	35474	35696	27912	32730	32903	
3065	0	31751	35950	21107	32903	32912	
3066	0	29233	36032	18214	32843	32936	
3067	0	28632	35753	12560	32696	33024	
3068	0	30314	35067	10239	32717	32939	
3069	0	31858	34368	20341	32488	32850	
3070	0	33020	33699	33659	32804	32904	
3071	0	33696	33033	41862	33009	32919	
3072	0	33176	32139	45092	32882	32916	
3073	0	31856	31527	45339	33061	32861	
3074	0	30343	30968	43122	33265	32967	
3075	0	28516	29522	40744	33360	32889	
3076	0	27616	29065	40289	32839	32825	
3077	0	26889	29338	41618	32594	32903	
3078	0	25962	30262	41065	32634	32839	
3079	0	26888	31144	33394	32460	32890	
3080	0	29152	32320	34080	32523	32905	
3081	0	32608	34310	41310	32613	32878	
3082	0	35959	34912	45776	32502	32643	
3083	0	37988	34930	48768	32410	32807	
3084	0	38542	34413	48303	32404	32941	
3085	0	37345	34131	43414	32538	32917	
3086	0	35154	33458	30520	32677	32935	
3087	0	31648	33056	4859	32792	32664	
3088	0	28701	33122	19	32896	32957	
3089	0	26842	33635	1669	32348	32765	
3090	0	25701	33439	6027	32929	32753	
3091	0	26203	33195	9395	33351	32795	
3092	0	28312	32870	26136	33202	32986	
3093	0	30480	32556	39110	33184	32827	
3094	0	31837	32431	41917	33119	32787	
3095	0	32178	32059	41109	32690	32939	
3096	0	32930	32327	43918	32696	32713	
3097	0	34058	32445	49205	32512	32972	
3098	0	35408	32829	51707	32505	32867	
3099	0	38349	32895	51417	32515	32728	
3100	0	39507	32813	54660	32765	32967	
3101	0	38704	32903	54993	32755	32791	
3102	0	36726	33215	52651	32774	32892	
3103	0	34730	33127	49927	32535	32903	
3104	0	33312	33328	22114	32588	32800	
3105	0	32308	33472	4319	32839	33028	
3106	0	32878	33256	21	33390	32728	
3107	0	33722	33442	1128	33531	32861	
3108	0	35137	33167	13711	33001	32957	
3109	0	35298	33039	19159	33192	32711	
3110	0	34832	32459	23333	32788	32839	
3111	0	34749	31471	29184	32535	32805	
3112	0	33818	30616	34137	32451	32717	
3113	0	33922	30649	38288	32654	32961	
3114	0	34541	31157	41241	32656	32868	
3115	0	35320	32044	44373	32613	32734	
3116	0	34702	32855	45191	32551	32745	
3117	0	34499	33138	41810	32548	32925	
3118	0	34011	33402	36251	32756	32943	
3119	0	32037	33268	29652	32763	32700	
3120	0	29716	33511	29164	32642	32681	
3121	0	27771	33752	33180	32890	32839	
3122	0	27762	33629	35842	32771	32963	
3123	0	28022	32873	38081	32717	32850	
3124	0	29119	32775	38075	32999	32767	
3125	0	31441	32541	35578	32991	32903	
3126	0	34249	32263	39128	32850	32919	
3127	0	35096	31902	42946	32733	32683	
3128	0	34920	32186	45245	32924	32955	
3129	0	34156	32941	44624	33031	32799	
3130	0	32308	32772	39265	32813	32902	
3131	0	31033	32017	28557	32594	32940	
3132	0	31683	30674	14106	32608	32747	
3133	0	33590	29715	12107	32944	32820	
3134	0	33508	28812	21387	33135	32976	
3135	0	34264	27903	29562	33027	32900	
3136	0	35296	28543	31194	32592	32751	
3137	0	34898	29935	32249	32511	32963	
3138	0	34632	31781	36501	32568	32989	
3139	0	34812	33879	33553	32583	32752	
3140	0	34635	35839	31237	32685	32869	
3141	0	33520	36376	37037	32772	32894	
3142	0	32054	35200	44384	33021	32951	
3143	0	29904	33207	43993	33054	32754	
3144	0	28230	31416	31785	32764	32650	
3145	0	28014	31136	15169	32729	32801	
3146	0	29165	31879	10051	32659	32680	
3147	0	31321	32459	19779	32742	32741	
3148	0	32983	32660	35116	32693	32787	
3149	0	34094	32537	46175	32711	32688	
3150	0	34660	32816	52886	32424	32909	
3151	0	34422	34261	55175	32045	32744	
3152	0	33622	35956	52640	32323	32791	
3153	0	32089	37476	44256	32304	32939	
3154	0	31316	38483	31257	32824	33001	
3155	0	31112	37514	13701	33506	32928	
3156	0	30332	34375	1253	33682	32859	
3157	0	28708	30518	3244	33663	32792	
3158	0	28650	28129	7041	33223	32693	
3159	0	30003	27917	10697	33114	32770	
3160	0	31248	28843	30477	32925	32938	
3161	0	32903	30667	42268	32746	32942	
3162	0	34722	31765	45842	32675	32726	
3163	0	36588	32101	45767	32653	32886	
3164	0	37608	32306	41095	32503	32943	
3165	0	37016	32753	36733	32509	32711	
3166	0	35714	33389	34448	32743	32973	
3167	0	33243	33701	35421	32694	32903	
3168	0	31296	33618	39640	32440	32908	
3169	0	30564	33035	41754	32520	32995	
3170	0	30360	33327	39873	32666	32775	
3171	0	31088	33330	37263	32499	32775	
3172	0	32228	33191	42661	32549	32905	
3173	0	34097	33870	46173	32703	32908	
