# OpenSignals Text File Format
# {"00:07:80:3B:46:63": {"sensor": ["EMG", "EMG", "EMG", "EMG", "EMG"], "device name": "00:07:80:3B:46:63", "column": ["nSeq", "DI", "CH1", "CH2", "CH3", "CH4", "CH5"], "sync interval": 2, "time": "13:1:15.696", "comments": "", "device connection": "BTH00:07:80:3B:46:63", "channels": [1, 2, 3, 4, 5], "date": "2017-4-28", "mode": 0, "digital IO": [0, 1], "firmware version": 770, "device": "biosignalsplux", "position": 0, "sampling rate": 1000, "label": ["CH1", "CH2", "CH3", "CH4", "CH5"], "resolution": [16, 16, 16, 16, 16], "special": [{}, {}, {}, {}, {}]}}
# EndOfHeader
0	0	32665	33287	32774	32483	32574	
1	0	32717	33287	32611	33031	32341	
2	0	32739	33065	32745	33135	32583	
3	0	32759	32171	32677	33735	32967	
4	0	32757	31391	32739	33970	33188	
5	0	32774	32443	32711	34183	32767	
6	0	32835	32895	32707	34768	32727	
7	0	32904	32825	32694	33939	33025	
8	0	32935	32551	32677	31951	32825	
9	0	32775	31813	32706	30806	32805	
10	0	32825	31283	32745	31710	32927	
11	0	32917	30519	32643	32643	32909	
12	0	32944	30470	32658	32498	32873	
13	0	32853	31168	32581	32361	32641	
14	0	32868	31463	32743	33234	32829	
15	0	32902	31557	32817	33951	32998	
16	0	32793	31767	32689	33757	32903	
17	0	32744	32883	32643	32533	32761	
18	0	32747	33383	32543	32111	32879	
19	0	32660	33451	32770	32411	32930	
20	0	32701	33645	32763	32343	32695	
21	0	32677	32955	32710	33117	32795	
22	0	32693	32491	32705	33173	32942	
23	0	32752	32695	32641	32749	32943	
24	0	32729	32858	32758	32405	33003	
25	0	32775	33415	32749	32466	32656	
26	0	32672	33858	32551	33241	32599	
27	0	32613	33959	32701	33179	32771	
28	0	32729	33830	32825	32735	33035	
29	0	32729	33984	32642	32242	32930	
30	0	32698	34304	32683	31838	32646	
31	0	32697	34157	32603	32091	32991	
32	0	32742	33135	32719	32107	32835	
33	0	32820	31655	32739	32335	32835	
34	0	32844	31287	32711	32773	32879	
35	0	32850	31361	32687	32551	32614	
36	0	32919	32192	32535	32603	32619	
37	0	32805	32208	32751	32793	32821	
38	0	32801	32056	32749	33695	32737	
39	0	32739	31807	32640	34079	32795	
40	0	32786	31744	32775	33285	32903	
41	0	32722	32327	32673	32819	32857	
42	0	32733	33101	32819	32747	32787	
43	0	32750	33583	32681	32363	32999	
44	0	32696	33165	32577	32987	32822	
45	0	32637	32813	32687	33703	32898	
46	0	32703	32351	32670	34926	32735	
47	0	32849	32535	32798	34887	32751	
48	0	32906	32183	32768	31942	33017	
49	0	32858	31843	32619	31229	32643	
50	0	32741	32215	32742	31443	32711	
51	0	32784	32850	32723	31651	32835	
52	0	32833	32743	32767	31857	32925	
53	0	32805	33287	32757	32003	32831	
54	0	32732	33027	32607	31877	33087	
55	0	32824	32690	32729	32442	32857	
56	0	32757	32803	32683	33139	32639	
57	0	32697	32858	32775	32261	32930	
58	0	32650	33159	32794	31661	32843	
59	0	32728	33446	32705	32829	32846	
60	0	32596	33647	32711	33308	33015	
61	0	32568	33637	32567	33101	32583	
62	0	32646	33517	32647	32248	32870	
63	0	32679	33671	32661	33263	32877	
64	0	32801	33534	32672	34435	32961	
65	0	32848	33455	32618	34507	33019	
66	0	32851	33255	32759	34005	32911	
67	0	32845	32413	32775	33635	32678	
68	0	32848	31473	32755	32765	32731	
69	0	32756	30635	32729	32117	32431	
70	0	32760	30322	32590	31874	32775	
71	0	32987	30331	32720	31952	32903	
72	0	32932	31559	32615	31313	33037	
73	0	32912	33393	32771	30837	32765	
74	0	32722	33885	32726	29959	32239	
75	0	32640	33287	32763	31175	32493	
76	0	32689	31397	32711	33595	32956	
77	0	32833	30232	32583	35983	32769	
78	0	32913	30045	32693	37383	32889	
79	0	32861	30807	32572	36065	32749	
80	0	32819	31986	32793	33757	33031	
81	0	32841	32961	32727	31901	32829	
82	0	32825	33711	32655	30479	33193	
83	0	32792	33735	32741	31239	32967	
84	0	32723	33621	32647	32695	32775	
85	0	32728	33490	32799	33326	32832	
86	0	32696	33429	32759	33240	32728	
87	0	32641	33821	32619	32491	33149	
88	0	32718	34051	32647	32463	32967	
89	0	32745	34469	32753	31629	32583	
90	0	32717	34839	32799	31321	32679	
91	0	32660	34299	32739	32239	32655	
92	0	32676	32997	32663	33387	32795	
93	0	32790	31502	32771	34355	32984	
94	0	32775	31318	32599	34306	32885	
95	0	32813	31287	32663	33159	33059	
96	0	32848	31750	32570	31922	32751	
97	0	32763	32447	32735	31457	32223	
98	0	32768	32439	32763	31312	32919	
99	0	32756	32455	32693	31526	33091	
100	0	32775	32567	32731	33199	32916	
101	0	32700	32995	32624	34706	33037	
102	0	32629	32661	32725	33735	32683	
103	0	32657	32254	32615	32345	32959	
104	0	32717	32263	32758	32139	32825	
105	0	32784	32483	32775	32923	32818	
106	0	32696	32603	32730	34011	32973	
107	0	32767	32500	32797	33475	32729	
108	0	32728	32455	32637	32946	32803	
109	0	32628	32751	32741	32635	33063	
110	0	32747	32631	32647	32497	32620	
111	0	32792	32487	32803	32495	32763	
112	0	32801	32309	32775	32809	32850	
113	0	32775	32528	32723	32675	32903	
114	0	32870	32507	32775	32023	33231	
115	0	32835	32467	32658	32401	32241	
116	0	32903	32595	32706	32741	32514	
117	0	32898	32502	32578	32547	32599	
118	0	32730	32459	32693	32397	32839	
119	0	32576	32419	32599	32465	32717	
120	0	32703	32827	32727	32469	33051	
121	0	32680	33167	32638	32482	32918	
122	0	32587	33162	32685	32635	32847	
123	0	32528	33743	32701	33142	33011	
124	0	32722	33935	32775	33881	32981	
125	0	32805	33151	32717	33613	32740	
126	0	32754	32390	32639	32921	32807	
127	0	32853	32035	32690	32902	33011	
128	0	32872	32659	32605	32873	32884	
129	0	32766	33947	32757	33071	32799	
130	0	32812	34847	32733	32662	33078	
131	0	32710	35125	32675	32263	32947	
132	0	32624	34709	32787	32371	32723	
133	0	32587	34013	32562	33565	32941	
134	0	32553	32447	32711	32562	32817	
135	0	32758	29885	32522	30441	32849	
136	0	32898	27721	32722	30434	32972	
137	0	32930	27104	32775	30878	32815	
138	0	32906	27885	32711	32163	32610	
139	0	32864	30043	32681	33247	32891	
140	0	32858	32238	32711	35292	32811	
141	0	32812	33223	32654	35856	32645	
142	0	32841	34115	32771	35245	32895	
143	0	32839	34679	32621	33846	32673	
144	0	32711	35039	32669	33063	32963	
145	0	32718	35279	32728	32687	32765	
146	0	32715	34819	32755	32473	33035	
147	0	32648	33995	32719	32041	32851	
148	0	32829	33023	32635	32035	32839	
149	0	32860	32475	32763	32331	32807	
150	0	32792	31895	32583	32633	32528	
151	0	32753	31709	32691	32775	32742	
152	0	32774	32130	32590	32704	32590	
153	0	32738	32233	32711	32861	32861	
154	0	32753	32591	32813	33011	32587	
155	0	32762	33057	32849	32597	32742	
156	0	32760	33683	32807	32293	32977	
157	0	32696	33875	32705	32245	33043	
158	0	32704	33167	32678	32571	33659	
159	0	32798	32601	32616	32667	33359	
160	0	32766	32041	32671	32937	32530	
161	0	32677	32693	32495	33143	32211	
162	0	32738	33344	32723	33179	33179	
163	0	32792	33915	32659	32999	33051	
164	0	32758	33711	32735	32515	31943	
165	0	32760	33911	32784	32391	32651	
166	0	32735	34071	32735	32283	33767	
167	0	32752	34217	32747	32067	33168	
168	0	32852	33906	32765	32257	31207	
169	0	32889	30853	32720	32385	31635	
170	0	32938	26486	32691	32575	32664	
171	0	32991	24989	32693	32761	33011	
172	0	32993	27779	32479	32801	33027	
173	0	32774	31857	32758	33143	33338	
174	0	32767	33091	32759	33339	32723	
175	0	32756	33095	32743	33263	32359	
176	0	32848	32311	32739	33267	32583	
177	0	32803	31771	32622	32929	32775	
178	0	32767	31371	32743	31926	33453	
179	0	32722	32283	32689	31264	33287	
180	0	32742	33574	32731	31423	33193	
181	0	32766	34178	32638	32349	33117	
182	0	32749	34627	32694	34419	32935	
183	0	32796	35275	32632	36154	32557	
184	0	32768	35555	32813	35719	32717	
185	0	32892	34738	32676	34214	32556	
186	0	32899	33841	32825	32623	32820	
187	0	32896	31928	32771	31911	32677	
188	0	32825	30971	32751	32001	32919	
189	0	32829	31611	32807	32479	33025	
190	0	32890	32707	32647	32455	32829	
191	0	32753	33541	32774	32325	33031	
192	0	32752	33061	32568	32493	32681	
193	0	32601	32837	32735	32391	32974	
194	0	32576	32565	32711	32552	32824	
195	0	32630	32611	32766	32381	32941	
196	0	32667	32887	32837	32583	32899	
197	0	32675	33323	32799	33351	32943	
198	0	32726	33561	32775	33850	32767	
199	0	32775	33503	32679	33519	32903	
200	0	32704	33200	32703	32505	32813	
201	0	32601	32937	32464	31769	32639	
202	0	32556	32775	32607	31494	32907	
203	0	32674	32863	32611	32438	32869	
204	0	32770	32945	32804	32685	32757	
205	0	32868	32898	32689	32343	32999	
206	0	32826	32861	32655	31411	32863	
207	0	32801	32599	32761	31631	32787	
208	0	32848	32614	32535	32111	32916	
209	0	32819	32647	32794	32602	32766	
210	0	32803	32690	32851	33243	32711	
211	0	32744	32539	32711	33415	32931	
212	0	32809	32295	32711	33037	32775	
213	0	32775	32281	32662	32615	32711	
214	0	32793	32347	32737	32655	32851	
215	0	32664	32263	32757	33511	32891	
216	0	32661	32274	32631	33635	32741	
217	0	32786	32287	32719	33167	32875	
218	0	32803	32637	32551	33170	32839	
219	0	32742	32775	32733	33055	32679	
220	0	32827	32951	32663	32903	32898	
221	0	32856	32720	32775	32977	32867	
222	0	32832	32705	32740	32845	32672	
223	0	32711	32559	32803	32775	32894	
224	0	32675	32621	32690	32773	32732	
225	0	32746	32723	32737	32692	32814	
226	0	32771	32744	32623	32793	32875	
227	0	32748	32809	32753	32706	32825	
228	0	32700	32561	32659	32745	33066	
229	0	32726	32671	32727	32685	32673	
230	0	32741	32855	32727	32666	32827	
231	0	32818	33071	32792	32817	32850	
232	0	32731	32450	32805	32716	32655	
233	0	32761	32397	32699	32557	32952	
234	0	32809	32259	32713	32723	32922	
235	0	32812	31909	32577	32642	32647	
236	0	32792	31683	32759	32391	32727	
237	0	32690	31718	32629	32549	32992	
238	0	32772	32175	32809	32501	32759	
239	0	32717	32523	32744	32404	32675	
240	0	32713	33046	32643	32735	32923	
241	0	32686	33163	32726	32791	32923	
242	0	32701	33351	32565	32711	33252	
243	0	32707	33795	32829	33025	32997	
244	0	32605	33843	32742	33063	32851	
245	0	32731	34457	32769	32957	32865	
246	0	32765	34707	32729	32995	32438	
247	0	32726	33991	32574	32947	32293	
248	0	32713	32851	32707	32887	32565	
249	0	32895	30727	32647	32767	33007	
250	0	33023	29037	32775	32918	32927	
251	0	33015	29319	32735	32743	32607	
252	0	32890	30102	32711	32589	33115	
253	0	32868	31477	32775	32551	32957	
254	0	32768	32606	32645	32517	32625	
255	0	32685	32963	32730	32438	32356	
256	0	32813	32695	32611	32429	32680	
257	0	32987	32749	32756	32947	32521	
258	0	32992	31874	32627	32997	32927	
259	0	32812	31013	32795	32775	32717	
260	0	32721	30989	32647	32765	32871	
261	0	32895	31657	32757	32923	33208	
262	0	32937	33223	32785	32847	32877	
263	0	32785	33751	32829	32679	32995	
264	0	32472	33027	32679	32446	32566	
265	0	32313	32217	32691	32704	32663	
266	0	32562	31334	32595	33020	33014	
267	0	32813	31538	32763	33144	32807	
268	0	32720	32486	32739	32934	32571	
269	0	32625	33773	32583	32873	32903	
270	0	32692	34518	32775	32935	32683	
271	0	32687	34496	32751	32815	32811	
272	0	32725	33987	32540	32383	32981	
273	0	32677	33629	32747	31859	32871	
274	0	32789	33451	32735	32386	33173	
275	0	32772	33857	32642	33223	32898	
276	0	32828	34131	32722	34111	33154	
277	0	32853	33507	32557	34254	32733	
278	0	32792	32141	32729	32863	32770	
279	0	32853	30411	32658	31431	32812	
280	0	32809	30047	32757	31267	33085	
281	0	32802	30919	32706	31033	32883	
282	0	32853	32039	32583	32553	32741	
283	0	32770	33253	32733	33539	33023	
284	0	32800	33703	32834	34368	32688	
285	0	32770	33850	32677	34283	32881	
286	0	32825	33943	32742	33623	32807	
287	0	32639	33573	32671	32583	32823	
288	0	32685	33271	32766	32127	32773	
289	0	32796	32997	32621	31918	32909	
290	0	32770	32933	32727	32415	32711	
291	0	32788	32935	32615	32765	32890	
292	0	32782	33121	32677	33055	32679	
293	0	32740	32965	32597	31805	32967	
294	0	32693	33029	32793	30953	32765	
295	0	32722	33021	32659	31015	33015	
296	0	32630	32903	32717	31743	32735	
297	0	32681	33187	32606	33439	32774	
298	0	32741	33095	32675	34899	32895	
299	0	32797	33025	32610	35113	32735	
300	0	32740	32760	32711	34374	32757	
301	0	32681	32507	32743	33442	32747	
302	0	32751	32294	32647	33627	32754	
303	0	32756	32544	32807	33263	32909	
304	0	32770	33050	32667	32407	32669	
305	0	32813	33363	32703	31204	32918	
306	0	32807	33571	32597	31403	32739	
307	0	32808	33567	32751	32505	32934	
308	0	32766	33567	32775	32144	32827	
309	0	32868	32681	32767	32162	32979	
310	0	32928	30989	32793	32501	32703	
311	0	32958	29299	32607	32589	32863	
312	0	32954	30181	32659	32507	32616	
313	0	32855	32006	32575	32899	32975	
314	0	32851	32979	32804	33507	32690	
315	0	32742	32481	32851	33575	32871	
316	0	32727	31799	32694	33479	32704	
317	0	32848	31513	32694	31999	32845	
318	0	32948	30906	32513	31463	32897	
319	0	32770	31491	32710	31751	32666	
320	0	32775	32247	32647	32199	32839	
321	0	32805	32861	32775	32513	33022	
322	0	32788	33339	32775	33702	32805	
323	0	32688	33855	32761	35527	32857	
324	0	32733	33391	32690	35215	32915	
325	0	32751	33141	32621	33838	32775	
326	0	32684	33387	32727	32659	32751	
327	0	32687	33159	32621	32167	32887	
328	0	32681	32824	32751	31949	32898	
329	0	32740	32969	32614	32135	32775	
330	0	32775	33149	32658	31906	32617	
331	0	32789	32955	32609	32345	32835	
332	0	32848	33571	32790	32209	32678	
333	0	32888	34103	32839	32747	32921	
334	0	32858	34129	32735	33466	32835	
335	0	32775	32877	32743	33219	32801	
336	0	32583	31491	32677	32775	32944	
337	0	32618	30354	32647	32751	32741	
338	0	32583	30507	32570	32943	32631	
339	0	32765	31019	32680	32839	33091	
340	0	32793	31559	32661	32622	33097	
341	0	32541	32135	32774	32425	32821	
342	0	32576	32384	32653	31883	32955	
343	0	32662	32437	32663	31721	32775	
344	0	32578	32933	32751	32175	32998	
345	0	32742	34195	32623	33423	33261	
346	0	32671	35327	32775	33971	32902	
347	0	32612	35447	32685	33927	32909	
348	0	32690	33799	32839	32527	32645	
349	0	32756	31223	32667	31773	32955	
350	0	32845	28966	32823	30707	33025	
351	0	32957	28765	32669	30685	32335	
352	0	33072	29295	32751	33627	32343	
353	0	33080	30780	32770	36227	32343	
354	0	33033	32423	32571	35967	32617	
355	0	32928	34010	32677	34007	32615	
356	0	32784	34566	32591	32443	32723	
357	0	32753	34473	32775	31559	32870	
358	0	32882	34343	32752	31815	33015	
359	0	32886	33638	32667	32477	32717	
360	0	32770	33583	32711	32976	32691	
361	0	32752	33427	32601	33871	32973	
362	0	32679	32992	32717	33659	32839	
363	0	32750	32401	32687	32485	32798	
364	0	32921	32698	32771	32011	32813	
365	0	32953	33103	32733	31837	32759	
366	0	32967	33795	32623	31705	32696	
367	0	32832	33799	32679	32090	33007	
368	0	32848	33341	32659	32263	32995	
369	0	32866	32907	32791	32252	32837	
370	0	32836	32313	32775	32431	32925	
371	0	32868	32047	32762	32615	33011	
372	0	32793	32003	32743	32851	32759	
373	0	32758	32591	32737	32868	32975	
374	0	32751	32977	32763	32859	32835	
375	0	32697	33503	32733	32889	32694	
376	0	32666	33421	32775	32482	32967	
377	0	32686	33189	32735	32263	32761	
378	0	32792	32703	32765	32303	32681	
379	0	32685	32163	32794	32122	32997	
380	0	32681	31621	32729	32467	32736	
381	0	32734	32016	32687	32839	33035	
382	0	32743	32525	32711	33661	32842	
383	0	32741	32863	32805	34792	32757	
384	0	32743	32937	32671	34550	32965	
385	0	32738	32491	32775	33074	32775	
386	0	32658	31615	32755	32279	32895	
387	0	32753	31570	32792	31609	33019	
388	0	32770	31643	32799	31334	32690	
389	0	32775	32183	32659	32059	32941	
390	0	32747	32327	32724	34061	32851	
391	0	32800	32887	32593	34027	32673	
392	0	32793	33043	32799	33253	32937	
393	0	32797	33159	32771	32570	32899	
394	0	32716	33223	32711	31670	32723	
395	0	32796	33359	32695	31896	32899	
396	0	32755	33184	32633	32562	32895	
397	0	32740	32866	32690	32800	32687	
398	0	32723	33317	32641	32519	32809	
399	0	32770	32923	32719	32819	32827	
400	0	32623	32583	32557	33357	32655	
401	0	32682	32237	32721	32795	32949	
402	0	32653	32467	32647	32282	32857	
403	0	32760	31886	32723	33371	32829	
404	0	32850	31215	32575	34685	32879	
405	0	32912	30255	32698	33595	32762	
406	0	32829	29766	32569	32849	32930	
407	0	32708	30655	32803	32523	32759	
408	0	32710	32473	32787	32483	32889	
409	0	32638	34198	32671	32650	32985	
410	0	32630	35102	32741	32379	32677	
411	0	32750	35571	32616	32122	32911	
412	0	32825	36058	32775	32683	32643	
413	0	32805	35047	32685	34299	32902	
414	0	32803	33337	32725	34127	32775	
415	0	32848	29974	32578	32105	32886	
416	0	32784	27293	32775	31053	32800	
417	0	32839	26201	32679	30267	33010	
418	0	32890	28011	32839	31239	32837	
419	0	32839	31013	32813	31631	32593	
420	0	32712	33055	32732	31347	32850	
421	0	32576	33970	32694	31541	32695	
422	0	32704	34129	32647	32036	32874	
423	0	32708	34531	32677	31839	32884	
424	0	32704	34219	32636	33031	32834	
425	0	32653	34217	32741	35713	32683	
426	0	32793	34495	32763	38727	32803	
427	0	32754	34359	32667	38699	32775	
428	0	32725	34217	32723	34515	32681	
429	0	32839	33849	32698	31581	32935	
430	0	32715	33906	32775	30929	32967	
431	0	32624	33943	32715	30655	32879	
432	0	32731	33155	32621	30565	32711	
433	0	32722	32470	32717	31734	32839	
434	0	32797	32089	32739	33191	33005	
435	0	32727	31974	32671	33454	32934	
436	0	32774	31783	32642	32821	32721	
437	0	32826	31398	32549	31451	33010	
438	0	32746	31771	32636	31741	32728	
439	0	32753	32483	32599	33697	33066	
440	0	32664	33063	32824	33735	32795	
441	0	32704	32943	32797	32623	33063	
442	0	32741	32615	32685	32756	33079	
443	0	32797	31879	32722	32679	32945	
444	0	32786	32483	32579	32535	32833	
445	0	32869	33477	32723	32640	32885	
446	0	32894	33351	32707	33397	32899	
447	0	32732	32773	32627	33367	32433	
448	0	32573	31869	32707	32933	32670	
449	0	32632	31446	32603	32575	32771	
450	0	32751	31864	32661	32319	32743	
451	0	32784	32641	32694	32263	32797	
452	0	32825	33147	32621	32883	32711	
453	0	32757	33031	32803	32407	32607	
454	0	32736	32799	32767	31871	32915	
455	0	32827	32247	32555	32395	32967	
456	0	32888	32445	32711	32893	32657	
457	0	32865	32511	32667	32816	32605	
458	0	32844	32687	32735	33494	32909	
459	0	32760	32353	32767	33621	32997	
460	0	32728	31549	32554	33695	33030	
461	0	32775	31931	32765	33795	32805	
462	0	32767	32743	32741	33028	32861	
463	0	32735	32965	32553	30907	33048	
464	0	32821	33068	32733	30582	32947	
465	0	32881	33511	32665	31827	32939	
466	0	32775	33191	32624	33143	32929	
467	0	32728	32497	32835	33435	33083	
468	0	32805	32031	32763	33475	32957	
469	0	32807	32255	32623	33311	32739	
470	0	32753	32738	32771	33287	32493	
471	0	32691	32451	32707	33065	32612	
472	0	32719	32417	32775	32162	32647	
473	0	32710	32599	32646	31794	32770	
474	0	32798	33131	32631	32451	32787	
475	0	32801	33733	32759	32199	32703	
476	0	32784	33622	32615	32813	32943	
477	0	32698	33490	32759	33579	33095	
478	0	32707	33939	32727	33467	32849	
479	0	32683	33735	32549	32821	32975	
480	0	32824	33071	32757	32630	32918	
481	0	32775	31845	32775	32927	32711	
482	0	32759	30354	32647	33284	32999	
483	0	32797	30935	32683	33589	32812	
484	0	32883	32751	32685	34359	32774	
485	0	32772	33369	32653	34503	32930	
486	0	32745	33671	32737	34561	32887	
487	0	32812	33859	32745	34431	32711	
488	0	32747	33967	32690	32213	32667	
489	0	32604	34148	32699	30834	33077	
490	0	32636	32541	32627	31255	32975	
491	0	32894	29929	32803	31587	32703	
492	0	33009	27493	32720	29954	32707	
493	0	33025	27868	32694	30989	32739	
494	0	32952	30697	32565	32614	32883	
495	0	32792	32733	32747	31823	33043	
496	0	32681	33395	32723	31779	33074	
497	0	32553	34261	32637	32763	33162	
498	0	32528	34383	32702	34431	33331	
499	0	32622	34375	32699	35198	33088	
500	0	32741	35231	32754	33938	32395	
501	0	32775	35935	32704	32661	32592	
502	0	32710	36002	32746	32077	32897	
503	0	32802	35295	32757	32154	32658	
504	0	32905	33171	32760	31991	32048	
505	0	33093	30115	32720	31963	31668	
506	0	33130	28003	32509	32645	32228	
507	0	33062	28677	32647	32419	32695	
508	0	33016	29787	32658	32559	32963	
509	0	32987	30993	32557	33403	32749	
510	0	32883	32142	32618	33773	32618	
511	0	32853	32907	32547	34189	32695	
512	0	32845	33179	32685	33525	32775	
513	0	32899	34150	32657	33249	32946	
514	0	32957	34128	32541	33028	33175	
515	0	32923	33121	32665	32977	33261	
516	0	32960	32579	32660	33195	33031	
517	0	32877	31865	32541	32807	33062	
518	0	32920	31925	32767	32847	33127	
519	0	32849	32455	32753	33248	33202	
520	0	32748	32811	32601	33009	33015	
521	0	32654	33641	32766	32393	32301	
522	0	32685	33933	32793	32455	32199	
523	0	32577	33871	32711	32665	32539	
524	0	32468	33465	32849	32549	32839	
525	0	32416	33167	32775	32647	33179	
526	0	32402	32861	32835	33049	33267	
527	0	32468	32615	32719	32066	33245	
528	0	32274	32515	32943	30426	32963	
529	0	32362	32589	32847	30945	32967	
530	0	32508	33447	32839	32169	33174	
531	0	32452	33337	32727	33585	33198	
532	0	32532	33635	32887	34512	32985	
533	0	32589	33125	32795	33623	32775	
534	0	32669	32301	32882	32835	32891	
535	0	32680	31515	32829	32875	33043	
536	0	32600	31528	32744	33202	32867	
537	0	32476	31263	32669	32953	32825	
538	0	32478	31509	32775	32313	32774	
539	0	32672	31883	32746	31079	32391	
540	0	32775	32583	32818	31931	32263	
541	0	32775	33559	32623	31911	32135	
542	0	32785	34174	32731	32381	32163	
543	0	32804	34077	32701	32449	32241	
544	0	32835	34187	32541	33285	32727	
545	0	32960	33589	32730	34332	32921	
546	0	32992	32423	32683	34258	33175	
547	0	33095	31149	32471	33606	33339	
548	0	32992	31440	32706	32499	33727	
549	0	32885	32058	32663	32813	33287	
550	0	32885	32199	32500	33687	33345	
551	0	32920	32863	32647	33339	33607	
552	0	32896	33475	32623	32868	33603	
553	0	32853	33761	32583	32047	33233	
554	0	32896	34383	32695	31827	33435	
555	0	32859	34285	32749	32535	31979	
556	0	32788	34231	32603	33313	31380	
557	0	32738	33918	32662	34279	32278	
558	0	32785	31791	32667	33366	33169	
559	0	32873	29615	32775	32004	32702	
560	0	32839	28538	32775	31390	31104	
561	0	32816	29191	32651	32356	31047	
562	0	32912	30526	32839	33279	31773	
563	0	32917	31271	32755	33149	31823	
564	0	32829	31955	32571	32661	32543	
565	0	32756	33451	32716	32691	33174	
566	0	32647	34926	32735	31496	33287	
567	0	32688	35213	32746	30998	33287	
568	0	32793	34125	32755	32364	33271	
569	0	32803	32543	32562	33543	33446	
570	0	32883	30855	32685	33307	33217	
571	0	32813	30682	32641	32208	33283	
572	0	32673	31184	32711	33551	33499	
573	0	32701	31399	32727	34540	33471	
574	0	32771	32435	32528	33831	33274	
575	0	32785	33115	32753	33522	33711	
576	0	32764	33561	32801	32917	34125	
577	0	32796	33565	32621	31315	34535	
578	0	32713	33541	32695	30407	34366	
579	0	32576	33351	32756	30763	34110	
580	0	32647	33399	32807	31015	33733	
581	0	32591	33907	32751	33029	33151	
582	0	32671	34235	32635	35891	31862	
583	0	32720	33922	32769	36983	29493	
584	0	32698	33721	32775	35546	28887	
585	0	32775	33703	32587	31081	30659	
586	0	32825	33479	32707	30449	30957	
587	0	32757	34183	32759	32019	31797	
588	0	32775	34556	32669	33222	32582	
589	0	32788	34407	32740	34461	33426	
590	0	32898	33661	32651	34022	33627	
591	0	32832	31955	32793	31608	33831	
592	0	32792	31303	32690	30205	33647	
593	0	32775	29906	32503	31391	33309	
594	0	33008	29071	32651	32775	32861	
595	0	33040	28940	32639	32991	33027	
596	0	32940	29216	32821	33001	33210	
597	0	32861	29571	32737	31912	33397	
598	0	32692	30215	32595	31999	33242	
599	0	32692	31325	32683	33451	33267	
600	0	32752	32951	32657	33575	33001	
601	0	32710	33537	32722	33254	32687	
602	0	32732	34261	32711	33383	32696	
603	0	32736	34723	32669	33277	32924	
604	0	32731	34194	32698	32639	33055	
605	0	32726	33083	32707	32570	32685	
606	0	32735	32085	32563	32246	32975	
607	0	32758	31521	32868	32283	32835	
608	0	32846	31661	32771	33183	33143	
609	0	32732	32105	32619	33946	32738	
610	0	32795	32601	32718	32817	31875	
611	0	32775	33343	32644	33193	31975	
612	0	32784	33753	32691	32775	32499	
613	0	32722	33527	32691	31565	32837	
614	0	32608	33762	32607	32187	33179	
615	0	32690	34231	32730	32658	33187	
616	0	32800	34208	32727	32135	33207	
617	0	32839	34358	32686	32751	33095	
618	0	32797	34439	32829	33403	33045	
619	0	32746	34207	32797	33509	32865	
620	0	32711	33735	32632	32562	32967	
621	0	32783	32979	32791	32261	32954	
622	0	32744	32706	32687	32165	32801	
623	0	32574	33039	32741	31967	33016	
624	0	32632	33551	32731	32717	33086	
625	0	32763	33399	32570	33047	32835	
626	0	32839	31959	32746	34455	33046	
627	0	32848	30427	32768	34478	33040	
628	0	32844	30526	32639	32390	33026	
629	0	32908	31007	32652	32643	33053	
630	0	32850	31559	32535	33709	33105	
631	0	32841	31667	32803	33159	33095	
632	0	32772	32583	32751	33191	33072	
633	0	32710	33389	32729	33531	33251	
634	0	32649	33794	32755	31087	33311	
635	0	32699	34178	32722	29551	33023	
636	0	32676	34359	32713	30951	32476	
637	0	32647	34527	32598	32863	31495	
638	0	32685	34065	32767	34150	32158	
639	0	32818	33261	32771	34561	32429	
640	0	32809	31835	32537	33684	32423	
641	0	32738	30159	32698	32999	32869	
642	0	32794	30107	32737	33799	32551	
643	0	32816	30965	32741	32772	32695	
644	0	32953	31549	32829	32983	32703	
645	0	32986	31775	32549	32929	33126	
646	0	32968	32249	32723	32664	32803	
647	0	32760	32665	32694	30725	32705	
648	0	32535	31934	32775	28713	33107	
649	0	32528	31633	32799	28961	32893	
650	0	32742	31283	32635	31391	32462	
651	0	32846	31239	32850	32717	32534	
652	0	32832	31843	32775	33981	32857	
653	0	32893	32860	32667	35813	32832	
654	0	32837	32743	32691	36743	32755	
655	0	32839	32223	32559	36593	32697	
656	0	32805	31669	32731	34107	32735	
657	0	32733	32506	32711	31965	32967	
658	0	32688	33269	32711	32095	32850	
659	0	32670	34558	32737	31465	32852	
660	0	32730	35011	32643	33479	33005	
661	0	32808	34066	32690	33607	32999	
662	0	32844	32105	32592	31887	32761	
663	0	32822	30623	32829	30959	32746	
664	0	32740	30715	32751	31293	32805	
665	0	32765	31231	32566	31355	32793	
666	0	32848	31859	32679	31143	32955	
667	0	32824	32101	32628	32683	32941	
668	0	32880	32419	32710	32941	32889	
669	0	32795	33491	32730	33977	33190	
670	0	32737	34439	32623	35603	33063	
671	0	32690	34703	32793	35677	32775	
672	0	32748	34393	32583	34374	33015	
673	0	32698	34247	32719	32913	33095	
674	0	32562	33519	32657	30978	32913	
675	0	32793	33287	32800	31403	32913	
676	0	32928	32647	32747	32061	32933	
677	0	32967	32947	32583	32357	32527	
678	0	32967	33083	32722	32223	32735	
679	0	32851	33051	32581	32537	32769	
680	0	32809	33001	32675	32643	32711	
681	0	32693	33003	32644	32989	32519	
682	0	32589	32621	32799	32947	32711	
683	0	32457	32549	32755	32813	32659	
684	0	32586	32626	32731	32831	32377	
685	0	32636	32983	32759	33117	32562	
686	0	32722	33279	32595	32813	32770	
687	0	32878	33071	32681	32789	32663	
688	0	32761	32899	32647	32857	32979	
689	0	32740	32502	32824	32883	32827	
690	0	32813	32141	32791	33137	32851	
691	0	32766	31815	32626	32947	33046	
692	0	32786	32873	32739	33167	32828	
693	0	32853	34267	32625	33175	33004	
694	0	32792	34703	32711	33275	32707	
695	0	32792	33450	32659	32448	32877	
696	0	32834	31898	32770	32081	32876	
697	0	32785	31257	32746	32538	32671	
698	0	32690	31557	32637	31805	32803	
699	0	32723	32280	32667	29743	33103	
700	0	32643	32295	32759	30572	33095	
701	0	32660	32199	32683	33723	33239	
702	0	32700	32167	32679	31959	33391	
703	0	32726	31348	32525	32438	33475	
704	0	32924	30482	32707	34017	33049	
705	0	33018	30104	32619	34867	32873	
706	0	32981	30943	32775	35727	32847	
707	0	32772	31513	32749	35071	32413	
708	0	32704	31183	32611	33116	32425	
709	0	32775	31675	32695	32455	32182	
710	0	32768	32995	32729	32930	32539	
711	0	32788	33821	32723	33455	32410	
712	0	32673	33974	32743	32674	33065	
713	0	32680	33499	32579	32615	33627	
714	0	32770	33707	32730	31661	33877	
715	0	32772	33983	32761	30779	33700	
716	0	32669	33823	32687	31815	32893	
717	0	32704	33927	32659	31842	32485	
718	0	32768	34226	32560	32461	32640	
719	0	32804	34405	32749	32491	32087	
720	0	32717	34003	32690	32314	30781	
721	0	32720	33599	32733	32069	31706	
722	0	32741	32327	32762	32935	33087	
723	0	32713	31161	32534	34279	33641	
724	0	32848	31325	32733	33371	33357	
725	0	32871	31604	32606	32135	32337	
726	0	32756	31259	32681	31586	31906	
727	0	32733	30665	32525	32263	31200	
728	0	32841	30071	32656	34371	32356	
729	0	33030	30795	32653	34563	33205	
730	0	32884	31813	32813	32722	33499	
731	0	32807	32605	32813	32295	33535	
732	0	32706	33351	32743	31819	33362	
733	0	32722	33263	32743	30727	33362	
734	0	32726	33315	32564	30481	33399	
735	0	32753	33575	32698	31527	32936	
736	0	32607	33449	32748	33429	32570	
737	0	32728	33093	32681	35189	32744	
738	0	32792	32947	32735	35405	32775	
739	0	32748	32343	32607	35213	32980	
740	0	32786	31823	32671	35650	32717	
741	0	32775	33415	32639	34083	32547	
742	0	32784	34487	32728	33111	32470	
743	0	32705	34915	32743	31815	32621	
744	0	32703	35511	32663	31269	32967	
745	0	32709	35079	32702	31030	32911	
746	0	32855	34126	32723	31382	32739	
747	0	32925	32551	32743	32123	32835	
748	0	32880	30041	32737	32356	32973	
749	0	32967	27045	32601	33114	32775	
750	0	32881	25711	32789	32623	32833	
751	0	32942	27048	32711	32411	32773	
752	0	32720	30087	32547	32853	32870	
753	0	32491	32879	32717	33287	32947	
754	0	32470	34267	32801	33703	32851	
755	0	32764	34703	32691	33222	32963	
756	0	32766	34899	32726	32746	33046	
757	0	32677	34863	32739	32685	33019	
758	0	32535	34927	32719	32860	32977	
759	0	32701	34874	32749	32590	32935	
760	0	32666	34439	32623	32207	32839	
761	0	32740	34311	32768	31683	32931	
762	0	32785	33437	32739	31398	32851	
763	0	32825	32543	32638	31787	32765	
764	0	32858	32227	32698	32453	32799	
765	0	32855	32175	32583	33089	32863	
766	0	32717	32505	32801	34151	32947	
767	0	32775	32999	32775	35557	32887	
768	0	32848	32901	32687	34723	32871	
769	0	32802	32703	32733	32207	32825	
770	0	32750	32087	32555	31021	32801	
771	0	32672	32223	32743	31285	32875	
772	0	32696	32358	32792	31219	32859	
773	0	32751	32835	32667	31577	32680	
774	0	32760	33415	32685	33086	32467	
775	0	32666	33511	32667	34703	32403	
776	0	32688	34001	32740	34818	32699	
777	0	32745	34559	32775	34736	32929	
778	0	32768	34512	32646	33043	32798	
779	0	32805	34021	32826	32813	32708	
780	0	32774	32851	32807	33023	32748	
781	0	32699	31879	32626	32150	33116	
782	0	32795	31229	32726	31259	33035	
783	0	32902	30127	32663	29835	33072	
784	0	32805	29382	32775	29919	33010	
785	0	32863	29599	32711	31719	32992	
786	0	32820	31303	32659	34706	32647	
787	0	32825	32813	32727	34744	31923	
788	0	32787	34159	32673	34173	31943	
789	0	32616	34537	32583	34311	31889	
790	0	32684	34019	32764	34914	31686	
791	0	32896	33211	32711	34285	32411	
792	0	32805	32153	32539	32473	32966	
793	0	32769	31225	32775	31769	33114	
794	0	32860	31893	32698	32327	33274	
795	0	32824	33557	32665	33227	33323	
796	0	32800	34859	32703	33123	33414	
797	0	32839	35485	32765	32007	33499	
798	0	32707	34787	32619	31447	33446	
799	0	32715	34555	32795	31047	33136	
800	0	32763	33210	32801	30816	31909	
801	0	32774	29762	32629	31267	32221	
802	0	32812	27655	32798	30124	32879	
803	0	32880	28019	32751	30627	33011	
804	0	32865	29888	32523	33042	32757	
805	0	32690	30755	32745	37586	32540	
806	0	32851	31387	32735	39423	32677	
807	0	32967	31875	32703	35645	32905	
808	0	32845	32365	32714	31457	32952	
809	0	32711	34125	32626	30635	33321	
810	0	32486	34929	32791	30874	33820	
811	0	32534	34387	32765	31303	33907	
812	0	32733	33506	32574	32365	33815	
813	0	32833	32375	32675	33975	33383	
814	0	32897	31815	32627	34290	32933	
815	0	32795	31296	32737	33047	32069	
816	0	32800	30593	32706	32348	30599	
817	0	32825	31108	32505	30781	31213	
818	0	32760	31861	32748	31065	32123	
819	0	32749	32775	32688	32663	32895	
820	0	32754	33917	32594	33486	33113	
821	0	32833	34115	32771	33767	33091	
822	0	32808	33797	32696	33287	32851	
823	0	32768	33459	32626	32023	33067	
824	0	32738	33414	32705	32310	33095	
825	0	32767	33494	32731	32579	32995	
826	0	32672	33895	32675	32849	33102	
827	0	32678	34507	32706	32711	33057	
828	0	32720	34514	32709	32396	32967	
829	0	32684	33743	32793	33122	32959	
830	0	32836	32831	32775	33569	32937	
831	0	32664	32477	32611	33995	32934	
832	0	32755	33110	32715	33799	32941	
833	0	32832	32979	32581	33743	33003	
834	0	32797	31981	32798	32855	33139	
835	0	32848	31491	32799	32127	33430	
836	0	32797	32039	32726	32003	33505	
837	0	32853	33013	32667	31403	33552	
838	0	32770	33519	32579	31543	33435	
839	0	32809	33219	32715	32411	33095	
840	0	32793	32827	32770	33563	32295	
841	0	32676	32239	32699	32493	31593	
842	0	32770	31872	32719	30622	31087	
843	0	32786	31979	32613	30619	31347	
844	0	32786	32125	32731	32809	32025	
845	0	32741	32387	32738	35111	32625	
846	0	32808	32423	32582	35318	32775	
847	0	32775	32689	32767	35395	32869	
848	0	32687	33031	32729	34719	33127	
849	0	32820	32891	32550	34263	33197	
850	0	32832	33175	32736	33389	33159	
851	0	32642	34068	32735	31525	33447	
852	0	32710	34559	32690	31504	33511	
853	0	32873	35110	32725	32655	33439	
854	0	32809	34387	32693	33591	33341	
855	0	32772	33588	32775	32373	33275	
856	0	32742	32439	32722	30778	33203	
857	0	32683	31171	32551	29682	32896	
858	0	32755	31239	32689	29743	32237	
859	0	32760	31261	32647	32384	31632	
860	0	32806	30882	32839	33829	32531	
861	0	32856	30813	32775	35136	33107	
862	0	33024	30608	32549	35167	32999	
863	0	32893	30975	32701	32583	32913	
864	0	32838	31574	32747	32327	32799	
865	0	32644	31252	32711	33037	32801	
866	0	32563	31107	32717	32748	32855	
867	0	32737	30957	32549	31801	33058	
868	0	32896	30939	32742	30395	33138	
869	0	32793	31879	32775	31478	32946	
870	0	32873	33233	32554	33062	32813	
871	0	32813	35075	32749	33789	32813	
872	0	32771	35847	32762	35083	32748	
873	0	32632	36013	32709	35667	32702	
874	0	32588	35350	32705	35521	32902	
875	0	32801	33327	32669	34083	33081	
876	0	33027	31136	32789	32295	33103	
877	0	32746	29899	32720	30369	32929	
878	0	32839	29887	32583	30463	32619	
879	0	32718	31037	32775	31097	32551	
880	0	32704	32263	32705	31186	32398	
881	0	32763	32909	32591	31363	32501	
882	0	32741	33919	32704	32059	32639	
883	0	32668	34039	32759	32877	32743	
884	0	32804	33336	32631	31287	32891	
885	0	32688	32991	32735	30755	33019	
886	0	32775	32845	32775	32831	32912	
887	0	32740	32313	32704	35501	32684	
888	0	32730	31613	32691	36579	32728	
889	0	32839	30646	32687	36382	32911	
890	0	32985	30642	32775	37205	32863	
891	0	32918	32187	32704	35241	32799	
892	0	32711	33823	32684	31289	32744	
893	0	32804	34344	32813	29252	32862	
894	0	32858	34023	32623	28999	33014	
895	0	32772	34439	32693	30717	32967	
896	0	32735	34486	32642	33415	32868	
897	0	32674	33727	32772	34755	33063	
898	0	32668	32999	32745	32855	33388	
899	0	32681	32371	32727	32675	33426	
900	0	32717	32021	32773	32823	32415	
901	0	32723	31474	32579	33168	31639	
902	0	32816	31853	32713	32827	32223	
903	0	32829	32386	32675	32539	32706	
904	0	32578	33095	32817	31751	32711	
905	0	32728	33679	32806	31427	32877	
906	0	32768	34371	32719	31859	32945	
907	0	32795	35119	32813	31787	33063	
908	0	32718	34806	32745	33205	33083	
909	0	32708	33863	32763	33611	33662	
910	0	32617	32377	32722	34265	34077	
911	0	32709	31610	32733	33939	33991	
912	0	32716	31981	32507	33711	33791	
913	0	32681	32283	32787	33053	33181	
914	0	32705	32402	32696	31833	32287	
915	0	32839	32455	32551	31737	30034	
916	0	32824	32288	32710	30502	29643	
917	0	32907	31128	32659	29719	31587	
918	0	32846	30253	32598	31699	32775	
919	0	32904	29415	32763	32903	33017	
920	0	32873	29013	32775	33299	33015	
921	0	32904	29089	32621	36050	33223	
922	0	32880	30507	32775	37413	33602	
923	0	32717	32383	32703	36099	33825	
924	0	32793	34623	32590	33932	33805	
925	0	32817	35760	32719	30802	33927	
926	0	32718	35427	32825	30188	34177	
927	0	32728	34691	32643	30573	34037	
928	0	32688	34055	32723	32415	33625	
929	0	32541	33815	32639	33017	31983	
930	0	32575	33559	32711	33603	29245	
931	0	32813	32681	32642	32813	28769	
932	0	32931	31605	32773	31465	31865	
933	0	32952	30771	32775	31212	33477	
934	0	32906	30815	32827	31943	33299	
935	0	32915	31815	32770	32527	33003	
936	0	32643	32504	32695	32991	32825	
937	0	32665	33227	32704	33730	33250	
938	0	32745	34031	32591	34146	33475	
939	0	32754	35023	32775	33158	33395	
940	0	32688	35471	32740	33302	33063	
941	0	32752	35827	32662	33614	33138	
942	0	32647	35403	32744	32399	33383	
943	0	32691	34730	32759	32813	33282	
944	0	32753	32815	32596	32761	33014	
945	0	32772	30899	32789	33273	32995	
946	0	32914	30727	32729	34031	33123	
947	0	32965	31147	32609	32902	33645	
948	0	32775	30751	32768	32018	33871	
949	0	32824	30203	32725	32480	33874	
950	0	32768	30919	32559	32391	33754	
951	0	32905	31431	32806	31082	31845	
952	0	32880	31446	32759	30983	31411	
953	0	32650	31323	32571	31797	32256	
954	0	32872	31578	32726	33304	32009	
955	0	32829	33475	32775	35824	31777	
956	0	32641	34399	32687	35062	32326	
957	0	32443	34258	32739	34091	32463	
958	0	32578	33223	32580	31193	33282	
959	0	32563	31331	32756	29464	33966	
960	0	32764	30427	32743	29663	33819	
961	0	32805	31559	32553	31134	33741	
962	0	32775	33685	32791	31995	33621	
963	0	32720	35598	32772	32775	32747	
964	0	32680	35619	32663	34153	32398	
965	0	32658	34418	32685	34277	30061	
966	0	32439	32323	32759	34220	30305	
967	0	32834	31187	32605	33519	31959	
968	0	32837	32213	32687	32516	32493	
969	0	32706	32630	32595	32907	33145	
970	0	32826	33442	32681	35042	33694	
971	0	32853	33463	32731	35515	33911	
972	0	32867	33139	32751	33703	34296	
973	0	32908	31886	32775	31445	33783	
974	0	32761	32123	32591	30407	33571	
975	0	32630	32151	32696	31215	31942	
976	0	32768	31923	32551	32210	31399	
977	0	32881	31876	32699	32345	32278	
978	0	32665	32631	32717	32941	32805	
979	0	32730	33030	32673	32530	32978	
980	0	32940	33047	32711	32512	32897	
981	0	32855	33677	32583	32312	33351	
982	0	32710	35023	32748	30983	33063	
983	0	32656	35115	32805	33311	32361	
984	0	32716	33748	32723	35042	32991	
985	0	32873	31154	32728	37022	33009	
986	0	32934	28977	32663	36097	33366	
987	0	32852	28231	32846	33395	33629	
988	0	32868	29235	32791	32386	33283	
989	0	33095	31205	32541	31387	33057	
990	0	32936	32743	32747	30479	32773	
991	0	32841	33049	32789	30969	33857	
992	0	32842	32289	32707	32678	34451	
993	0	32836	31149	32717	33317	34167	
994	0	33015	31022	32533	33087	33313	
995	0	32815	32502	32680	31904	32125	
996	0	32544	34630	32658	31641	31623	
997	0	32483	35917	32773	31815	30771	
998	0	32496	34641	32725	33148	30687	
999	0	32680	32893	32591	34586	32067	
1000	0	32848	31491	32775	33607	33317	
1001	0	32592	31559	32711	32327	34046	
1002	0	32549	31671	32555	31273	34610	
1003	0	32805	31424	32737	32166	34400	
1004	0	32896	31801	32745	33026	33703	
1005	0	32762	33203	32557	33593	32551	
1006	0	32340	34234	32679	32581	33206	
1007	0	32455	33723	32767	31197	32583	
1008	0	32662	33836	32683	31417	34653	
1009	0	32966	34025	32773	33175	32574	
1010	0	33146	33881	32637	33936	29739	
1011	0	32842	32289	32767	34277	31659	
1012	0	32708	31181	32735	32033	33143	
1013	0	32680	32356	32610	32803	32473	
1014	0	32768	33761	32706	34710	30956	
1015	0	32710	33820	32691	33567	31551	
1016	0	32736	33274	32770	33159	34144	
1017	0	32829	32493	32806	32725	34843	
1018	0	32870	31815	32659	32925	33071	
1019	0	32899	32218	32626	32659	32241	
1020	0	32953	33131	32638	32425	32167	
1021	0	32796	32528	32646	32155	29414	
1022	0	32824	31986	32626	32227	29191	
1023	0	32635	32086	32733	32640	29857	
1024	0	32674	32788	32613	31877	33488	
1025	0	32677	33085	32727	31392	33999	
1026	0	32696	33658	32733	32356	30258	
1027	0	32754	34466	32643	33122	30591	
1028	0	32800	35572	32818	32263	32737	
1029	0	32834	35819	32762	31751	35070	
1030	0	32656	33438	32711	31647	36111	
1031	0	32706	30919	32716	31098	36867	
1032	0	32565	29225	32549	30919	38142	
1033	0	32472	29037	32850	32466	34512	
1034	0	32525	30091	32756	36183	30290	
1035	0	32520	31216	32589	38235	32057	
1036	0	32578	32611	32715	36455	30937	
1037	0	32646	34183	32628	32741	30915	
1038	0	32596	34591	32726	31585	32225	
1039	0	32616	35035	32729	32395	32838	
1040	0	32746	35373	32692	33384	33248	
1041	0	32828	35315	32715	34047	33113	
1042	0	32902	34238	32691	33093	33343	
1043	0	32879	32071	32677	31727	31013	
1044	0	32979	30076	32663	30917	31571	
1045	0	33150	29623	32801	30348	32623	
1046	0	32881	30262	32723	31311	31657	
1047	0	32761	31943	32775	32039	33017	
1048	0	32734	32978	32679	32411	33591	
1049	0	32736	32907	32705	32484	33920	
1050	0	32809	33607	32765	33005	33939	
1051	0	32802	33311	32559	32125	33623	
1052	0	32861	31266	32727	32903	33650	
1053	0	32920	30247	32791	34463	33459	
1054	0	32972	31331	32635	34723	33287	
1055	0	32955	32599	32674	34073	33431	
1056	0	32928	32391	32687	33091	33110	
1057	0	32805	32775	32741	31837	33264	
1058	0	32575	33583	32727	32337	33131	
1059	0	32511	34007	32631	32051	33011	
1060	0	32609	35190	32805	32209	33227	
1061	0	32719	35168	32789	32743	33189	
1062	0	32868	33458	32605	31747	32909	
1063	0	32936	31239	32765	31257	32647	
1064	0	32835	28829	32743	31890	32457	
1065	0	32793	27863	32571	33057	32757	
1066	0	32722	29607	32692	32235	32815	
1067	0	32594	32045	32800	33470	32548	
1068	0	32727	34219	32669	34231	32765	
1069	0	32812	34903	32785	34612	33255	
1070	0	32772	34023	32689	35841	33143	
1071	0	32740	33629	32614	35597	32711	
1072	0	32500	33841	32745	34244	32019	
1073	0	32672	35174	32742	32061	31427	
1074	0	32818	35703	32606	30452	31221	
1075	0	32872	35047	32707	31155	31587	
1076	0	32912	32411	32697	31710	32331	
1077	0	32872	29409	32548	32037	32793	
1078	0	32832	28216	32799	33187	33055	
1079	0	32877	28919	32775	34533	33216	
1080	0	32924	30338	32633	34439	32999	
1081	0	32793	32205	32750	33163	32833	
1082	0	32788	34257	32775	31554	33357	
1083	0	32768	34979	32639	30447	33360	
1084	0	32795	35022	32711	30443	33358	
1085	0	32785	34299	32711	31391	33419	
1086	0	32741	33466	32597	32111	33039	
1087	0	32797	32925	32730	32755	33243	
1088	0	32999	32199	32775	33307	33196	
1089	0	32787	31429	32681	33751	33017	
1090	0	32720	31047	32646	34801	32135	
1091	0	32793	31346	32583	34776	32139	
1092	0	32824	31933	32734	33366	32847	
1093	0	32728	32327	32751	31535	33041	
1094	0	32630	32414	32735	30452	32815	
1095	0	32442	32717	32671	29943	32853	
1096	0	32347	32903	32577	31453	33061	
1097	0	32775	33567	32763	32290	33399	
1098	0	32736	34705	32722	33301	33360	
1099	0	32576	37057	32725	34871	33361	
1100	0	32758	36575	32801	35619	32735	
1101	0	32874	34689	32734	34770	31035	
1102	0	32831	32503	32583	33872	31997	
1103	0	32760	31981	32753	31047	32717	
1104	0	32813	31995	32680	29453	32770	
1105	0	32805	32021	32635	30797	33280	
1106	0	32685	32886	32786	33869	32998	
1107	0	32500	32774	32767	37299	32587	
1108	0	32747	31813	32610	36959	32674	
1109	0	32903	30623	32793	35289	33039	
1110	0	32965	29856	32707	31425	33339	
1111	0	33008	30243	32612	27791	33799	
1112	0	32916	31203	32809	27495	33351	
1113	0	32805	32088	32711	29068	32438	
1114	0	32916	33210	32588	32170	32527	
1115	0	32950	32370	32740	36710	32623	
1116	0	32887	31574	32765	37191	32229	
1117	0	32753	31273	32613	35441	31855	
1118	0	32664	31890	32698	31647	32423	
1119	0	32842	32831	32595	30096	33333	
1120	0	32809	33045	32706	32331	33063	
1121	0	32832	31595	32631	33981	32801	
1122	0	32729	30018	32807	35022	32911	
1123	0	32851	30387	32612	33703	32832	
1124	0	32888	32775	32746	32192	32237	
1125	0	32749	35259	32696	30511	32754	
1126	0	32726	36151	32583	29907	33411	
1127	0	32583	34599	32707	32167	33491	
1128	0	32793	33579	32759	35058	33159	
1129	0	32761	33175	32809	36077	33426	
1130	0	32839	33182	32815	35983	33604	
1131	0	32589	34407	32651	34247	33363	
1132	0	32624	35089	32822	32071	32219	
1133	0	32646	34724	32749	29856	33199	
1134	0	32587	33257	32627	28697	33367	
1135	0	32603	32448	32755	31486	30736	
1136	0	32705	32403	32741	33627	28470	
1137	0	32464	31993	32657	33277	31309	
1138	0	32472	31186	32607	34432	32937	
1139	0	32656	30902	32595	33187	33075	
1140	0	32808	31937	32730	31555	34265	
1141	0	32971	31999	32739	29346	33735	
1142	0	32825	30343	32555	29538	32771	
1143	0	32839	28818	32772	30356	33110	
1144	0	32994	29487	32741	32759	33918	
1145	0	32953	32443	32553	34744	34178	
1146	0	33021	34786	32716	37094	32711	
1147	0	33072	36852	32618	37255	30869	
1148	0	33168	38149	32789	35335	31999	
1149	0	32898	38215	32670	31405	33069	
1150	0	32730	36132	32691	27461	33203	
1151	0	32833	32882	32700	27945	33451	
1152	0	33106	29988	32694	32839	33495	
1153	0	33144	27549	32690	35533	32997	
1154	0	33052	26933	32503	36715	32948	
1155	0	32925	28915	32735	36423	33195	
1156	0	33006	29846	32761	34887	33045	
1157	0	33096	30599	32559	33406	33021	
1158	0	32998	31058	32591	32613	32857	
1159	0	32845	32855	32730	32463	32701	
1160	0	32769	34616	32692	31106	32711	
1161	0	32594	35428	32748	29536	33035	
1162	0	32583	35550	32774	30951	33386	
1163	0	32409	34998	32771	30691	32863	
1164	0	32301	32998	32723	31801	32631	
1165	0	32400	30831	32675	33304	32153	
1166	0	32420	29683	32866	34355	32603	
1167	0	32527	29042	32861	34126	32999	
1168	0	32738	30039	32759	32765	33154	
1169	0	32489	32723	32811	32020	33063	
1170	0	32400	34066	32735	32219	33323	
1171	0	32362	34173	32955	32489	31929	
1172	0	32455	34114	32746	34158	32576	
1173	0	32507	34053	32846	34855	33243	
1174	0	32536	33927	32735	35214	32959	
1175	0	32617	34235	32869	33631	32960	
1176	0	32608	34263	32820	32305	32144	
1177	0	32520	34561	32743	32391	31418	
1178	0	32573	35842	32890	32581	32519	
1179	0	32668	36943	32832	32807	33083	
1180	0	32748	36959	32817	32754	32791	
1181	0	32676	34547	32710	32829	32884	
1182	0	32786	31454	32629	31634	32933	
1183	0	33016	29867	32694	31517	32770	
1184	0	33135	30694	32655	32507	32891	
1185	0	33113	31331	32487	32735	33411	
1186	0	33021	31899	32706	33150	33301	
1187	0	33121	31962	32691	31915	33159	
1188	0	33071	32367	32553	31184	33095	
1189	0	32803	33023	32661	32734	33190	
1190	0	32628	31751	32592	33104	32959	
1191	0	32716	30885	32663	32255	32884	
1192	0	32842	32008	32647	32372	32727	
1193	0	32848	33255	32455	32583	32633	
1194	0	32756	33407	32675	33017	32647	
1195	0	32585	32063	32609	32421	33003	
1196	0	32645	31357	32774	30507	32829	
1197	0	32775	32101	32761	31835	33093	
1198	0	32962	32581	32599	33041	33023	
1199	0	32907	32511	32770	32652	32955	
1200	0	32967	33548	32739	33757	33259	
1201	0	33121	34218	32595	34945	33143	
1202	0	32942	34039	32729	32707	33095	
1203	0	32771	32397	32583	29618	33087	
1204	0	32742	31571	32725	30137	33055	
1205	0	32732	30295	32674	32263	32820	
1206	0	32576	29280	32603	36892	32709	
1207	0	32789	28648	32631	38534	32911	
1208	0	32760	28295	32619	38759	32807	
1209	0	32861	28167	32819	36226	32655	
1210	0	32973	29547	32775	32207	31722	
1211	0	32885	32399	32568	30365	31193	
1212	0	32739	34360	32771	29795	32443	
1213	0	32653	35655	32724	29265	33511	
1214	0	32664	36290	32772	30245	33477	
1215	0	32729	36240	32792	31751	33650	
1216	0	32819	36487	32687	32071	33799	
1217	0	32775	36355	32729	32391	33702	
1218	0	32927	34552	32612	33215	33902	
1219	0	32767	32773	32789	34023	33576	
1220	0	32882	32475	32686	34393	29842	
1221	0	32704	33388	32565	34863	28954	
1222	0	32775	34034	32685	34067	31289	
1223	0	32866	33863	32687	32734	32293	
1224	0	32794	31842	32805	30309	32947	
1225	0	32732	30363	32855	30140	33494	
1226	0	32833	30939	32684	32907	33337	
1227	0	32846	32455	32685	33983	33349	
1228	0	32676	34567	32607	33279	33647	
1229	0	32727	34907	32797	31173	33528	
1230	0	32577	34659	32694	30589	33172	
1231	0	32673	33694	32623	31453	32615	
1232	0	32713	30610	32607	32525	32583	
1233	0	32666	28073	32543	32934	33424	
1234	0	32994	27885	32775	34803	33735	
1235	0	33204	29442	32745	34527	33599	
1236	0	32990	30191	32702	31461	33869	
1237	0	32646	31283	32710	30079	33918	
1238	0	32596	33494	32619	30934	33496	
1239	0	32712	36822	32744	33702	32798	
1240	0	32753	39455	32732	36264	31330	
1241	0	32711	39562	32813	38352	29638	
1242	0	32586	37565	32807	37819	30983	
1243	0	32424	36266	32842	34405	32371	
1244	0	32418	33059	32832	33216	33100	
1245	0	32589	30253	32737	32676	33187	
1246	0	32650	28323	32901	31728	33199	
1247	0	32595	30409	32829	30690	33068	
1248	0	32602	30966	32651	29568	33199	
1249	0	32876	32085	32743	26354	33187	
1250	0	32987	31481	32539	26980	33111	
1251	0	33001	29665	32480	27958	33072	
1252	0	33048	28755	32511	31053	33117	
1253	0	33045	27035	32576	31779	33287	
1254	0	32718	26018	32685	34488	33218	
1255	0	32788	28088	32695	39164	33050	
1256	0	32877	31077	32806	38151	32973	
1257	0	32722	34038	32717	36941	32962	
1258	0	32695	34446	32849	35950	32749	
1259	0	32686	33203	32753	32606	32677	
1260	0	32728	30639	32888	31714	32597	
1261	0	32816	28796	32813	31365	32871	
1262	0	32805	28667	32765	29286	32893	
1263	0	33053	30356	32638	30685	32582	
1264	0	32997	34017	32490	32283	32717	
1265	0	32862	37179	32720	34678	32809	
1266	0	32765	36973	32633	35543	32722	
1267	0	32839	36522	32707	34295	33031	
1268	0	32973	37009	32767	34813	33062	
1269	0	32882	38369	32787	34051	33125	
1270	0	32594	38683	32813	32767	33113	
1271	0	32455	38203	32754	30155	32813	
1272	0	32521	37383	32803	30240	32883	
1273	0	32599	35970	32738	31981	32410	
1274	0	32617	35031	32797	33373	32247	
1275	0	32816	32345	32751	34651	32615	
1276	0	32946	29390	32593	34689	32423	
1277	0	32766	27557	32699	32937	32805	
1278	0	32658	28253	32520	30835	32815	
1279	0	32638	30505	32691	30421	33071	
1280	0	32890	31515	32574	31707	32999	
1281	0	32817	31293	32690	33594	33509	
1282	0	32718	30247	32657	34091	33626	
1283	0	32549	30438	32747	34631	33025	
1284	0	32599	32071	32759	34129	32226	
1285	0	32593	32867	32775	33959	31871	
1286	0	32672	33283	32724	33399	31943	
1287	0	32867	33683	32636	31887	32391	
1288	0	32886	33843	32775	30463	32830	
1289	0	32801	34674	32805	31727	32377	
1290	0	32868	34782	32695	32858	31864	
1291	0	32963	33850	32762	31719	32839	
1292	0	32898	33485	32549	29971	33789	
1293	0	32860	33635	32738	28933	33439	
1294	0	32875	34330	32829	31782	33362	
1295	0	32765	34243	32795	34253	33465	
1296	0	32698	32553	32775	34231	33076	
1297	0	32617	31417	32699	32675	32723	
1298	0	32642	30295	32691	32473	32999	
1299	0	32861	30813	32569	33735	33087	
1300	0	33011	32007	32749	33117	32879	
1301	0	32984	33551	32759	33247	32797	
1302	0	32920	34675	32619	34031	33520	
1303	0	32762	33928	32667	35559	33407	
1304	0	32652	32391	32583	35689	32262	
1305	0	32724	32082	32751	31922	30893	
1306	0	32801	31905	32813	29980	31297	
1307	0	32800	30626	32755	32115	32747	
1308	0	32754	29595	32674	33871	33433	
1309	0	32969	29651	32564	32793	33519	
1310	0	32997	31250	32775	31943	33266	
1311	0	32963	32809	32738	32383	33071	
1312	0	32907	32105	32663	34153	33307	
1313	0	32839	32101	32723	33558	33216	
1314	0	32801	33511	32647	32453	32634	
1315	0	32755	34779	32805	32135	32711	
1316	0	32687	34508	32757	30119	33338	
1317	0	32503	34029	32722	30187	33306	
1318	0	32512	34223	32711	31815	32567	
1319	0	32640	34311	32533	34271	32273	
1320	0	32482	34706	32738	35059	32247	
1321	0	32472	34189	32813	33783	32615	
1322	0	32752	32953	32787	33159	32898	
1323	0	32816	32797	32729	32441	32745	
1324	0	32832	31737	32565	31160	32818	
1325	0	33065	29835	32711	31257	33054	
1326	0	33097	29679	32751	28999	33057	
1327	0	32848	32013	32663	27665	33077	
1328	0	32775	34290	32709	29721	33303	
1329	0	32339	33615	32706	33747	33278	
1330	0	32454	31782	32757	38241	33264	
1331	0	32609	30113	32775	40771	32952	
1332	0	32720	29681	32610	39260	31263	
1333	0	32805	29732	32675	32932	31312	
1334	0	32654	30127	32553	29679	32698	
1335	0	32805	31281	32735	31155	33525	
1336	0	32768	32461	32694	34631	33791	
1337	0	32995	33734	32716	36587	33826	
1338	0	33012	34594	32744	35241	33347	
1339	0	32875	34631	32601	29834	32231	
1340	0	32759	33631	32707	27760	32327	
1341	0	32775	32919	32669	29810	33193	
1342	0	32813	33131	32711	31623	33302	
1343	0	32841	32999	32723	32576	33348	
1344	0	32775	31879	32612	32740	32256	
1345	0	32583	30566	32677	33382	30698	
1346	0	32560	30767	32537	31725	32033	
1347	0	32548	31791	32759	31510	33072	
1348	0	32472	32479	32844	33594	32315	
1349	0	32586	34816	32747	34533	32707	
1350	0	32713	35687	32797	34878	33539	
1351	0	32698	35237	32738	32611	33408	
1352	0	32726	34134	32833	30055	32878	
1353	0	32890	31602	32850	30789	32999	
1354	0	33216	29415	32622	34990	32947	
1355	0	33214	29083	32670	38296	32743	
1356	0	33000	29048	32596	36816	31853	
1357	0	32812	29775	32764	32639	32045	
1358	0	32698	32626	32741	30890	32667	
1359	0	32573	35472	32671	29078	32895	
1360	0	32509	36443	32737	27917	33504	
1361	0	32528	38483	32711	29615	33451	
1362	0	32603	39554	32775	31385	33107	
1363	0	32724	38299	32719	32359	32685	
1364	0	32728	35738	32704	34887	32707	
1365	0	32825	29968	32553	38147	32751	
1366	0	33007	26001	32653	40694	33023	
1367	0	32932	25246	32647	37714	33159	
1368	0	32883	28435	32805	35143	32992	
1369	0	33163	32628	32705	32691	32746	
1370	0	32968	35704	32775	31065	32219	
1371	0	32680	35864	32818	27708	32493	
1372	0	32292	36398	32706	25856	32803	
1373	0	32219	36270	32720	24569	33523	
1374	0	32297	37719	32664	25938	34119	
1375	0	32459	37458	32731	29113	33127	
1376	0	32614	35305	32678	32606	32687	
1377	0	32616	34841	32821	34575	32827	
1378	0	32792	33735	32835	37725	32495	
1379	0	33072	32461	32707	38511	32327	
1380	0	32832	31910	32826	36703	32717	
1381	0	32774	29737	32578	35335	32837	
1382	0	33104	26568	32717	37020	32744	
1383	0	33388	23828	32687	36071	32925	
1384	0	33438	20986	32771	33076	33168	
1385	0	33336	22992	32749	29921	33095	
1386	0	33272	28450	32551	29139	33264	
1387	0	32856	34916	32692	30717	33374	
1388	0	32445	37146	32751	32839	32927	
1389	0	32100	36225	32839	33693	31813	
1390	0	32041	35199	32868	31047	32638	
1391	0	31896	33779	32660	26947	32282	
1392	0	32320	31874	32806	27423	32301	
1393	0	32602	32641	32725	32769	32800	
1394	0	32764	33165	32308	38599	32717	
1395	0	32948	33117	32419	38419	32487	
1396	0	32994	32620	32575	36562	32109	
1397	0	32792	30855	32753	31032	31902	
1398	0	32741	31853	32734	29823	32688	
1399	0	32895	34823	32651	31663	33062	
1400	0	32941	38093	32760	33892	33187	
1401	0	32835	39533	32771	36103	33144	
1402	0	32941	39750	32758	39472	33279	
1403	0	32732	38720	32848	34707	33280	
1404	0	32304	35321	32936	28295	33201	
1405	0	32441	32641	33021	26915	33054	
1406	0	32881	31125	33195	29121	32952	
1407	0	33048	29753	33024	34202	33056	
1408	0	33032	28563	32301	35907	32706	
1409	0	32908	26270	32132	35634	32379	
1410	0	33106	25201	32361	31789	32557	
1411	0	33196	26501	32023	30659	32651	
1412	0	33504	28619	32493	30071	33116	
1413	0	33140	31373	32743	33049	33405	
1414	0	32852	33962	32709	34194	32945	
1415	0	32699	34978	32903	34429	32845	
1416	0	32759	34808	32953	34359	33029	
1417	0	32722	35127	32903	35011	33207	
1418	0	32745	33159	32895	34023	33191	
1419	0	32848	30401	32704	32067	32871	
1420	0	32571	28343	32575	29983	32255	
1421	0	32552	26799	32831	29983	33095	
1422	0	32270	27990	32849	30976	34119	
1423	0	32110	33007	32805	32595	33972	
1424	0	32312	36935	32976	33877	30861	
1425	0	32520	37558	33048	33461	31545	
1426	0	32561	38422	33032	32683	31331	
1427	0	32500	39980	32967	32809	31593	
1428	0	32510	40283	32965	33185	32807	
1429	0	32666	38450	33254	32399	33223	
1430	0	33056	36092	32863	31691	32967	
1431	0	33154	35185	31786	32187	32928	
1432	0	32937	32495	31071	32952	33101	
1433	0	32960	29155	31210	31431	33478	
1434	0	33096	27727	32038	30742	33472	
1435	0	33056	27090	32825	30842	33362	
1436	0	32769	28226	32937	33667	32975	
1437	0	32750	30727	33023	35158	32498	
1438	0	32621	32834	33007	35007	32507	
1439	0	32459	34834	32919	34558	32583	
1440	0	32368	34959	33083	34191	32775	
1441	0	32386	34799	33047	30195	33186	
1442	0	32553	34896	32803	26681	33012	
1443	0	32832	34835	32749	25334	32326	
1444	0	32949	31691	32557	26747	32754	
1445	0	33068	28469	32797	32108	32903	
1446	0	33312	27905	32681	34088	32624	
1447	0	33339	29319	32808	40289	32315	
1448	0	33215	30951	32765	43467	32003	
1449	0	33035	32984	32924	41771	32194	
1450	0	33204	34138	32723	37121	32851	
1451	0	32953	35824	32880	34979	33121	
1452	0	32617	38244	32857	34387	33327	
1453	0	32557	39600	32903	32191	33355	
1454	0	32693	39383	32924	29488	33367	
1455	0	32680	36715	32896	27542	33100	
1456	0	32636	31047	32825	25745	33406	
1457	0	32775	27526	32845	23541	33379	
1458	0	32611	25675	32771	24237	33755	
1459	0	32313	26389	32893	28319	33839	
1460	0	32309	30413	32557	33709	33605	
1461	0	32261	34536	32792	42976	32109	
1462	0	32166	39661	32857	46448	31788	
1463	0	32132	43003	32887	43884	32824	
1464	0	32242	41107	32775	40286	32547	
1465	0	32456	34995	32771	32939	32304	
1466	0	32521	28324	32658	27853	32630	
1467	0	32618	23002	32761	24355	32705	
1468	0	33088	19878	32450	21421	32283	
1469	0	33694	21137	32775	24569	32312	
1470	0	33548	24886	32608	25105	32627	
1471	0	33198	29903	32879	24929	32543	
1472	0	33307	31795	32893	26439	32743	
1473	0	33301	30855	32917	28907	32686	
1474	0	33401	31305	32669	38774	32174	
1475	0	33136	31226	32506	47890	32631	
1476	0	32924	32962	32920	51642	32775	
1477	0	32945	34003	32868	51769	33166	
1478	0	32770	35829	32920	44123	33564	
1479	0	32903	38215	32787	35040	32920	
1480	0	32656	38633	32448	30950	32433	
1481	0	32220	37587	31711	28631	32512	
1482	0	32035	35649	31421	27227	33005	
1483	0	32121	34658	31840	26898	32801	
1484	0	32487	36043	32194	27469	32982	
1485	0	32692	38877	32368	25886	32957	
1486	0	32700	40175	32626	27487	33027	
1487	0	33012	38261	32723	29304	33071	
1488	0	33033	33443	32899	29002	33042	
1489	0	32968	29645	33042	29106	33472	
1490	0	33140	27855	33121	31419	33675	
1491	0	32728	29247	33037	33467	33339	
1492	0	32728	29109	33045	31108	32693	
1493	0	32665	26728	32831	30279	31394	
1494	0	32610	27667	32775	31187	32011	
1495	0	32848	30185	32683	33075	32597	
1496	0	33081	29803	32753	33250	32866	
1497	0	32989	28711	32766	38054	33051	
1498	0	33168	29942	33027	40146	32947	
1499	0	33016	29934	33158	39983	32963	
1500	0	32598	30948	33559	36935	32887	
1501	0	31936	32435	33746	32775	32557	
1502	0	31618	35307	33982	28883	32931	
1503	0	31529	37624	33877	24976	33222	
1504	0	31406	39133	33554	27588	33434	
1505	0	31773	37039	32376	34752	32939	
1506	0	32538	37179	31455	38892	31864	
1507	0	33046	35814	29878	35087	32408	
1508	0	33616	32519	29831	31251	33229	
1509	0	33956	29383	31769	32301	31831	
1510	0	33922	27117	32621	32925	32235	
1511	0	33555	26179	33115	33338	32807	
1512	0	33471	27287	33043	34212	32726	
1513	0	33084	30320	33287	32477	33211	
1514	0	33013	34371	33320	30552	33996	
1515	0	32707	36359	33529	29645	34541	
1516	0	32853	35195	33366	33110	34692	
1517	0	33161	33108	33012	36623	33778	
1518	0	33533	32321	32827	35743	33799	
1519	0	33490	34624	32630	34997	32871	
1520	0	32874	37529	32599	33051	29413	
1521	0	32224	37669	32518	28891	29511	
1522	0	32100	35003	31715	28051	29957	
1523	0	32300	30530	31511	29868	30718	
1524	0	32406	30912	32527	33671	31941	
1525	0	32480	33313	32998	35922	32949	
1526	0	32594	34714	32877	35333	34048	
1527	0	32937	33735	32451	35566	33753	
1528	0	33363	32327	32502	33562	34063	
1529	0	33496	31338	32839	31133	34362	
1530	0	33545	29685	32813	22874	34246	
1531	0	33091	29281	33078	21113	34704	
1532	0	32480	32824	33106	26869	33052	
1533	0	32024	34859	33158	35242	31028	
1534	0	31997	33082	32958	42271	31047	
1535	0	32164	32127	33120	43463	31104	
1536	0	32328	29910	32852	43890	32337	
1537	0	32500	27685	32868	42270	33315	
1538	0	32699	29801	32768	35488	33494	
1539	0	32824	35284	32967	28849	33250	
1540	0	32526	39575	32955	27338	33347	
1541	0	32387	41117	32905	26377	33407	
1542	0	32518	39495	32535	28534	32747	
1543	0	32720	37042	32493	31172	32475	
1544	0	32873	34226	32646	32999	32104	
1545	0	32873	30455	32591	34284	32683	
1546	0	32853	27679	32727	33896	33267	
1547	0	32957	28027	32589	31599	33283	
1548	0	32908	27323	32815	31978	33305	
1549	0	32874	26789	32759	30183	33213	
1550	0	32597	27852	32899	24701	33185	
1551	0	32377	29383	32667	26111	33175	
1552	0	32682	32918	32805	26459	33009	
1553	0	32575	36230	32752	28312	33719	
1554	0	32926	37565	32699	28160	33681	
1555	0	33216	36949	32705	32519	32050	
1556	0	32912	35521	32707	38674	31643	
1557	0	32891	33285	32587	41927	31713	
1558	0	33068	31053	32852	42606	31869	
1559	0	33344	29221	32713	45369	32327	
1560	0	33316	27620	32464	46727	32902	
1561	0	33321	28208	32815	42587	33154	
1562	0	32820	30288	32723	35137	33117	
1563	0	32020	30640	32562	24732	32984	
1564	0	31938	30255	32775	19822	33197	
1565	0	32148	29687	32697	22697	33088	
1566	0	32404	29023	32565	29231	33016	
1567	0	32516	31122	32775	34162	33202	
1568	0	32918	34994	32834	37434	33168	
1569	0	33323	39823	32918	36466	33179	
1570	0	33357	43416	32875	35835	32757	
1571	0	33297	44735	32971	35698	32383	
1572	0	33356	41088	32959	33511	32092	
1573	0	33317	35246	33053	28909	32539	
1574	0	32944	31537	32869	24991	32352	
1575	0	32805	27397	32839	26265	32397	
1576	0	32940	22284	32862	28329	32967	
1577	0	32592	22370	32758	32423	33628	
1578	0	31696	25347	32827	35087	34017	
1579	0	31196	28598	33179	33093	34011	
1580	0	30558	33995	33088	26360	33175	
1581	0	30243	38956	33138	26235	32550	
1582	0	30644	40827	32127	31805	31819	
1583	0	31208	39920	31269	39277	32334	
1584	0	31975	37225	31921	42171	32640	
1585	0	33510	33122	32337	38578	30919	
1586	0	35484	28731	32896	33884	31229	
1587	0	36252	25472	32732	31981	33232	
1588	0	35672	26072	31915	36751	34674	
1589	0	34885	28625	31909	37990	35512	
1590	0	34414	30329	32154	36501	36437	
1591	0	34462	30307	32683	33938	35244	
1592	0	34146	31117	32353	32893	33739	
1593	0	33432	34442	30919	31927	33859	
1594	0	32989	37163	31364	30617	30572	
1595	0	32660	39923	32611	29073	26828	
1596	0	31912	41650	33279	28691	28354	
1597	0	31672	45044	33596	30139	26990	
1598	0	31397	45207	33579	29435	28389	
1599	0	31466	40680	33531	28805	30814	
1600	0	31316	34933	33497	24033	32827	
1601	0	31257	27590	33458	24433	33415	
1602	0	31186	24116	33149	30044	33768	
1603	0	31176	23029	33120	35275	34472	
1604	0	31281	24463	32941	40592	34797	
1605	0	31252	24198	33064	39013	34208	
1606	0	31900	22128	32882	33141	32825	
1607	0	32619	23263	32855	29205	33811	
1608	0	33965	25038	33011	27083	34894	
1609	0	34674	28855	32950	25521	34414	
1610	0	34852	34091	32967	32929	34532	
1611	0	34696	41876	32969	42866	34505	
1612	0	34138	46664	33073	47380	33440	
1613	0	33551	46509	33025	42424	30873	
1614	0	33158	41991	32920	34995	32037	
1615	0	32658	37471	32763	31987	33062	
1616	0	32384	33007	32562	35004	33113	
1617	0	32376	29081	32424	41234	32775	
1618	0	32839	26565	32525	42263	33065	
1619	0	33485	26984	32616	39819	32919	
1620	0	33376	26407	32583	31722	30920	
1621	0	33462	27120	32785	25769	32101	
1622	0	33095	28807	32984	21413	33073	
1623	0	32433	31607	32740	17851	33735	
1624	0	32278	34259	32728	16895	33174	
1625	0	32382	31411	32740	19621	32997	
1626	0	32450	27884	32671	26119	32662	
1627	0	32216	28894	32770	37529	31842	
1628	0	31757	33957	32840	45522	32090	
1629	0	31815	36408	32379	45570	32903	
1630	0	32129	34916	31734	37211	33433	
1631	0	32449	31280	31984	27612	33670	
1632	0	33001	28498	32475	22589	33759	
1633	0	33696	30889	32579	24871	33403	
1634	0	34266	35282	32684	33482	31980	
1635	0	34028	38055	32713	40082	31672	
1636	0	33388	38775	32643	42393	32565	
1637	0	32888	39803	32762	38555	32937	
1638	0	32494	39063	32947	35594	31727	
1639	0	32386	36967	32999	35064	32368	
1640	0	31988	33767	32999	35168	33095	
1641	0	31475	30137	32963	35175	33147	
1642	0	31416	27933	32812	34943	33155	
1643	0	31590	27222	32821	32263	33027	
1644	0	32065	27239	32667	31683	32824	
1645	0	32522	29078	32377	30352	32583	
1646	0	32653	30695	32435	29190	32478	
1647	0	32962	32425	32619	28466	32538	
1648	0	33263	36157	32915	30339	32939	
1649	0	33116	39762	32984	34543	33053	
1650	0	33306	39695	32922	36882	32857	
1651	0	33200	38226	32851	31915	33422	
1652	0	33340	33496	32635	28856	33827	
1653	0	33808	30497	32674	28167	33755	
1654	0	33382	31041	32626	28242	33709	
1655	0	33225	33509	32876	31559	33127	
1656	0	32793	35511	32805	33754	31545	
1657	0	32476	35205	32822	31352	30937	
1658	0	33038	33728	32835	32199	31623	
1659	0	33077	31175	32688	35589	32162	
1660	0	32313	29775	32775	37074	32516	
1661	0	31653	31002	32754	33606	32743	
1662	0	31488	30394	32871	30903	33093	
1663	0	31472	26937	32958	31203	33400	
1664	0	31636	24681	32930	32362	33611	
1665	0	32528	25215	32795	32846	33392	
1666	0	33304	28652	32473	33929	33346	
1667	0	33672	32832	32403	37771	32873	
1668	0	33993	34020	32219	39957	32629	
1669	0	33956	35301	32523	35085	32545	
1670	0	33794	35203	32662	30147	32742	
1671	0	33472	37055	32837	26790	32839	
1672	0	32969	37527	32897	29170	33271	
1673	0	32482	37151	32903	31665	33427	
1674	0	32423	35530	33229	30132	32839	
1675	0	32495	32935	33142	31232	32334	
1676	0	32477	32109	32909	34291	32434	
1677	0	32272	30627	32631	31995	32865	
1678	0	32420	28381	31936	31571	33269	
1679	0	32233	28234	31657	31867	32615	
1680	0	32075	28883	32343	32505	32803	
1681	0	32165	31047	32741	33922	32789	
1682	0	32704	33897	32724	37731	32707	
1683	0	32855	36450	32743	40771	32933	
1684	0	32868	40274	32861	39362	33158	
1685	0	32967	40719	32857	34800	32950	
1686	0	32516	37187	32835	31229	32921	
1687	0	32184	33062	32632	25463	32696	
1688	0	32135	30051	32832	21159	33064	
1689	0	32313	30482	32915	20382	33315	
1690	0	32450	31367	32883	22847	32871	
1691	0	32903	29221	32797	33155	32494	
1692	0	33274	29026	32696	44866	30858	
1693	0	33386	32209	32889	48540	31040	
1694	0	33162	33813	32913	42912	32293	
1695	0	32942	35389	32932	33744	32967	
1696	0	32752	35118	32902	29365	33305	
1697	0	32769	30958	32909	27466	32963	
1698	0	33202	29894	32691	27188	32909	
1699	0	32932	31465	32543	29049	33131	
1700	0	32300	35443	32640	32873	33320	
1701	0	32080	40397	32694	34779	33031	
1702	0	32273	38895	32755	34522	32818	
1703	0	32620	34018	32616	36827	33070	
1704	0	32721	29624	32619	41435	32735	
1705	0	32909	29395	32567	40031	32733	
1706	0	33112	28880	32718	34776	32987	
1707	0	32964	28265	32718	26473	33251	
1708	0	32793	27128	32471	21998	33256	
1709	0	33054	23460	32632	25963	33192	
1710	0	33179	22291	32730	29215	32795	
1711	0	33295	26398	32833	33388	32355	
1712	0	33562	32085	32747	33042	32330	
1713	0	33848	36999	32667	35867	32592	
1714	0	33730	37565	32763	36431	32711	
1715	0	33036	39389	32832	35326	33105	
1716	0	32320	40261	32887	35295	33109	
1717	0	32121	38323	32923	36101	32967	
1718	0	31716	32348	32717	35106	33023	
1719	0	31453	24927	32888	34333	32905	
1720	0	31385	20953	32832	30988	33058	
1721	0	31204	20374	32651	29818	33080	
1722	0	31520	23418	32747	31919	32787	
1723	0	31771	29001	32710	31361	32553	
1724	0	32944	32391	32882	28301	32581	
1725	0	34266	34880	32957	26645	32717	
1726	0	35083	37721	32843	28279	32594	
1727	0	35808	39524	32977	31991	32489	
1728	0	35822	40272	32711	35737	32901	
1729	0	34568	38983	31999	37631	33351	
1730	0	33272	38797	32165	39343	33704	
1731	0	32074	39513	32622	36575	33465	
1732	0	31332	38992	33062	33351	33283	
1733	0	31175	40445	33368	27384	33983	
1734	0	31548	42274	33102	26879	34195	
1735	0	31621	42582	32263	28487	34093	
1736	0	31525	41107	32011	30799	33117	
1737	0	31744	38553	32190	33687	30592	
1738	0	32770	32548	32443	34736	28448	
1739	0	33869	24298	32487	37970	30475	
1740	0	33903	22373	32877	38991	32449	
1741	0	33608	24609	32175	35559	32435	
1742	0	33454	26500	31343	30811	32261	
1743	0	33098	30864	32275	25792	32656	
1744	0	32770	34687	33074	23696	33552	
1745	0	32391	36184	33426	28287	33979	
1746	0	31968	31654	33594	34763	33654	
1747	0	32123	23493	33195	38209	32797	
1748	0	32325	17381	32656	36998	32100	
1749	0	31961	19218	32314	30436	33218	
1750	0	32077	24095	32041	28417	34086	
1751	0	32522	30055	31885	31277	34303	
1752	0	32964	36953	32583	34572	33799	
1753	0	33154	42223	33138	33754	32325	
1754	0	33008	45660	33277	33597	30708	
1755	0	32809	46674	33624	37735	31422	
1756	0	32392	43544	33525	38902	32557	
1757	0	32500	38196	33393	35847	33088	
1758	0	32392	32391	33330	26461	32989	
1759	0	32492	29300	33496	28211	32791	
1760	0	32658	26564	33009	33099	33335	
1761	0	33036	24671	31813	39173	33616	
1762	0	33573	23155	32135	39292	33779	
1763	0	33945	23026	32473	37559	33940	
1764	0	34088	24557	32526	34863	34099	
1765	0	34254	26291	32441	33368	33599	
1766	0	33749	30471	32879	30042	32370	
1767	0	33074	35547	32912	28539	31367	
1768	0	32119	40117	33055	27107	30599	
1769	0	31632	43867	33091	28729	31347	
1770	0	31768	45969	33132	29715	32902	
1771	0	32070	46385	33042	33443	33974	
1772	0	32041	43523	32944	37468	34942	
1773	0	31992	38056	32850	39878	33668	
1774	0	32124	31819	32630	38761	32999	
1775	0	32713	27410	32328	33088	33313	
1776	0	33588	23325	32521	26200	31896	
1777	0	34136	20646	32336	22857	30544	
1778	0	34310	20267	32515	23723	29627	
1779	0	33773	22119	32670	27361	29987	
1780	0	33419	27046	32485	35217	32056	
1781	0	33235	30016	32697	41580	33630	
1782	0	33090	33241	32676	38674	34044	
1783	0	33056	38798	32746	33101	33767	
1784	0	32824	43383	32947	31460	33799	
1785	0	32545	44875	33029	32678	34203	
1786	0	32292	41039	33033	31289	35072	
1787	0	32363	34659	32911	31619	34694	
1788	0	32484	27493	32658	33186	33896	
1789	0	32536	25723	32749	32227	33963	
1790	0	31928	26967	32635	31605	32911	
1791	0	31104	28883	32845	32173	32428	
1792	0	30480	32345	32829	33581	31223	
1793	0	30649	35259	32960	33078	31553	
1794	0	31717	37690	32941	35034	31449	
1795	0	32564	39042	32868	34946	33453	
1796	0	33333	38333	32915	35486	33938	
1797	0	34000	35174	32662	35223	33243	
1798	0	34514	33049	32795	35269	34439	
1799	0	34413	31286	32640	35113	36432	
1800	0	33806	27842	32767	33082	35808	
1801	0	33182	27139	32859	30493	32091	
1802	0	33256	28219	32907	30607	28662	
1803	0	33188	29014	32843	32832	29693	
1804	0	32944	27971	32685	31102	32217	
1805	0	32412	28015	32768	25157	31861	
1806	0	31971	30266	32571	22179	33312	
1807	0	32041	33442	32800	26162	35202	
1808	0	31418	37660	32797	35291	33764	
1809	0	30946	40285	32740	43071	31687	
1810	0	30858	39521	32764	41543	32944	
1811	0	31095	37723	32797	36615	33101	
1812	0	32123	33747	32733	30512	31526	
1813	0	33085	29831	32763	30781	29375	
1814	0	33544	28763	32833	30181	28201	
1815	0	34096	28036	32581	29519	30586	
1816	0	35056	26141	32611	30769	31711	
1817	0	34944	27582	32216	32707	29719	
1818	0	34177	30458	32691	35273	32275	
1819	0	33443	32939	32974	34567	36211	
1820	0	33016	35186	33059	32527	36577	
1821	0	32933	38680	32926	32818	37021	
1822	0	33298	42107	33150	34793	35248	
1823	0	33188	42786	33135	35719	34320	
1824	0	32917	38141	32600	33752	27470	
1825	0	32448	34251	31943	31902	29510	
1826	0	31937	30806	32002	32133	33371	
1827	0	31341	28218	31997	29048	34406	
1828	0	30826	27811	31202	30252	35053	
1829	0	30436	28430	31636	37325	33714	
1830	0	30908	27959	32130	40635	30767	
1831	0	31620	27565	32632	32711	31442	
1832	0	32512	27689	32673	27939	33248	
1833	0	33138	30643	32675	28566	34754	
1834	0	34292	33593	32813	28623	36267	
1835	0	34836	38234	32845	30822	37178	
1836	0	34937	39495	32870	33125	32679	
1837	0	34528	36968	32967	32493	28665	
1838	0	33910	32891	32874	32082	29760	
1839	0	32930	30583	33028	34442	30644	
1840	0	32470	31643	33063	35861	30045	
1841	0	32564	31941	33211	33305	31499	
1842	0	33024	31632	33111	31332	33281	
1843	0	32811	31239	32891	34997	33919	
1844	0	33110	32231	33005	35094	33751	
1845	0	33012	33531	33033	35295	33033	
1846	0	32839	33669	32999	35695	33439	
1847	0	32293	32391	32982	34168	33251	
1848	0	32327	32374	32843	29914	33815	
1849	0	32681	31811	33005	29275	34148	
1850	0	32912	33004	32914	35121	34413	
1851	0	32753	35544	32677	31906	34200	
1852	0	32379	37695	32829	28306	32725	
1853	0	32372	37778	32847	29307	32017	
1854	0	31954	35416	32650	33727	32700	
1855	0	31666	31200	32644	38540	32366	
1856	0	32063	28998	32689	40759	31649	
1857	0	32280	29776	32551	34534	32191	
1858	0	32565	31347	32563	29202	33209	
1859	0	32855	31212	32621	27582	32711	
1860	0	32646	28585	32641	29106	32871	
1861	0	32835	26139	32716	31077	32192	
1862	0	32770	25969	32839	27237	31642	
1863	0	32933	29919	32527	26655	31847	
1864	0	33352	33816	32678	31239	33690	
1865	0	33465	38224	32722	35975	34610	
1866	0	33123	40716	32740	38407	33513	
1867	0	33048	41680	32787	42728	33144	
1868	0	32873	39171	32789	41850	33551	
1869	0	32775	32638	32610	36646	34159	
1870	0	33084	24801	32848	35385	33877	
1871	0	32872	17422	32833	31461	33877	
1872	0	32512	17479	32606	24384	34126	
1873	0	31952	22681	32780	20054	34249	
1874	0	32096	27415	32825	21524	34104	
1875	0	32221	34064	32530	28839	32199	
1876	0	32337	39716	32676	36589	28392	
1877	0	32550	44480	32933	40797	27126	
1878	0	32553	45858	32772	42160	29205	
1879	0	32390	43808	32692	40356	31746	
1880	0	31820	40191	32565	37661	33722	
1881	0	32122	37714	32563	34679	33943	
1882	0	32815	35225	32621	34226	33735	
1883	0	33376	33323	32699	33184	33845	
1884	0	34070	30982	32673	31074	33764	
1885	0	34059	27933	32857	28362	33358	
1886	0	33799	25523	32812	26341	32348	
1887	0	33154	24343	33090	25864	31403	
1888	0	33078	25341	33150	27437	31705	
1889	0	33113	29818	32992	28845	32368	
1890	0	33047	34823	32767	28905	32990	
1891	0	32873	37159	32631	29103	33447	
1892	0	32488	37966	32721	31943	33725	
1893	0	32297	37779	32433	33735	33285	
1894	0	32647	34295	32741	37191	33432	
1895	0	33040	32071	33270	39935	34015	
1896	0	32784	32717	33336	38022	34450	
1897	0	32553	35179	33076	33897	35147	
1898	0	32272	38291	32897	34508	34805	
1899	0	32472	39796	31368	32520	33006	
1900	0	32852	39943	29261	35505	30210	
1901	0	32741	36359	29634	38550	30794	
1902	0	32477	31726	30936	37095	31516	
1903	0	32780	27998	32135	31784	30949	
1904	0	33018	26020	33163	26562	31960	
1905	0	33113	23133	33389	24870	33247	
1906	0	33232	19591	33693	26500	33376	
1907	0	33315	19019	33680	29483	32891	
1908	0	33111	22210	33653	31951	33071	
1909	0	32880	26803	33645	33583	33368	
1910	0	32638	33722	33435	38022	33131	
1911	0	32648	41060	32692	37314	33530	
1912	0	32716	46394	32541	32382	32809	
1913	0	32864	47987	33132	29312	32617	
1914	0	32754	46311	33298	30708	32377	
1915	0	32312	40231	33194	37024	31877	
1916	0	31932	33755	33087	39400	33090	
1917	0	31808	28976	33193	36295	33433	
1918	0	31872	25941	33156	32917	33163	
1919	0	31887	23013	33108	27395	33147	
1920	0	32356	20667	32989	27840	33449	
1921	0	32946	20463	32903	29375	33705	
1922	0	33316	24445	32717	30338	32801	
1923	0	32865	30277	32454	36227	31845	
1924	0	32614	36774	32809	37607	32415	
1925	0	32132	39623	32891	39237	33471	
1926	0	32253	38503	32834	38549	33625	
1927	0	32532	37511	32731	35637	33215	
1928	0	32662	37545	32805	32856	33214	
1929	0	33333	38872	32713	27841	34595	
1930	0	33972	40343	32816	24497	34103	
1931	0	34303	40268	32831	26486	31230	
1932	0	34730	36763	32812	30018	32119	
1933	0	34642	31040	32832	34076	30949	
1934	0	34031	26456	32809	31851	30403	
1935	0	33129	23841	32835	31379	29246	
1936	0	32192	24189	32640	30723	28767	
1937	0	31220	25412	32805	31834	30997	
1938	0	31216	26334	32674	34820	34991	
1939	0	31112	28630	32647	40649	36184	
1940	0	30945	31403	32763	39777	34404	
1941	0	30580	33060	32759	35352	31335	
1942	0	30836	35975	32883	32892	33249	
1943	0	31824	37488	32767	32662	31559	
1944	0	32896	36145	32701	33375	31781	
1945	0	34168	32631	32625	32675	32725	
1946	0	35085	32307	32477	35111	34045	
1947	0	35756	32757	32550	38407	33475	
1948	0	35405	31641	32477	35648	33151	
1949	0	33453	30767	32664	27044	33755	
1950	0	32308	31529	32602	23152	33650	
1951	0	31940	35975	32723	27335	32912	
1952	0	31618	38377	32589	32463	32888	
1953	0	31657	39366	32871	34902	32967	
1954	0	32096	39580	32807	34419	33607	
1955	0	33320	37583	32633	32082	33815	
1956	0	34288	33170	32465	25588	33826	
1957	0	34779	29774	32547	20762	32428	
1958	0	34529	27965	32580	27477	32893	
1959	0	33775	27887	32898	33615	33036	
1960	0	32774	30059	32997	38166	33209	
1961	0	32102	34498	33238	39751	33140	
1962	0	31696	40290	33219	39445	33050	
1963	0	31424	41939	33339	34652	32670	
1964	0	31668	39747	33150	33129	32087	
1965	0	31426	35168	31382	37541	32391	
1966	0	30984	27719	30856	38214	32710	
1967	0	31842	19918	32090	38386	33274	
1968	0	33044	15227	32661	34533	33831	
1969	0	33766	15415	32242	30451	34194	
1970	0	34402	19472	31965	28257	33836	
1971	0	34218	25976	32146	25988	33799	
1972	0	33452	32160	32640	10304	32971	
1973	0	33213	39233	33236	7446	29979	
1974	0	32988	43262	33404	23380	30694	
1975	0	32459	45149	33901	44452	31978	
1976	0	32137	44058	34028	56653	32469	
1977	0	31666	42311	33772	57111	33019	
1978	0	31237	41155	31878	50210	32893	
1979	0	31239	38112	31892	36246	32763	
1980	0	31782	33242	32963	23120	33296	
1981	0	31893	26557	32745	17936	33597	
1982	0	32331	23047	32800	19487	33485	
1983	0	32860	24922	32748	25902	33152	
1984	0	33072	30171	32518	32393	32726	
1985	0	32689	32795	32951	36589	31765	
1986	0	32103	33685	33174	43246	32960	
1987	0	32280	35250	33405	44717	33176	
1988	0	33149	36450	33181	43650	32825	
1989	0	34004	34498	32699	37661	32143	
1990	0	34950	30608	31416	31475	31239	
1991	0	35857	27904	31971	31295	31569	
1992	0	35938	25986	32114	31701	32865	
1993	0	34859	24018	31706	31020	33214	
1994	0	33464	23363	31786	30727	33373	
1995	0	32390	25509	32653	29472	33019	
1996	0	31992	31822	32918	27441	33142	
1997	0	31510	37273	33227	26560	32873	
1998	0	31049	39901	33296	25487	32624	
1999	0	30642	42330	33344	19133	32275	
2000	0	30128	43552	33317	15438	32989	
2001	0	30005	43048	33211	26658	33282	
2002	0	30598	42685	33257	36028	33196	
2003	0	31608	44200	32886	44542	33243	
2004	0	32795	44674	32692	50112	32888	
2005	0	33926	42293	32410	49238	32685	
2006	0	34560	37195	32700	39175	32492	
2007	0	34969	30442	32813	29291	33243	
2008	0	34900	23700	32950	28834	33146	
2009	0	34397	18605	32891	36112	32910	
2010	0	33578	16920	32882	39741	33511	
2011	0	32867	18247	32775	38571	33061	
2012	0	32322	21927	32717	35544	32248	
2013	0	32358	25309	32802	28810	32157	
2014	0	32123	29693	32677	25295	32747	
2015	0	32468	35495	32853	27630	32272	
2016	0	32534	39839	32999	30786	32807	
2017	0	32788	41561	33191	32653	32571	
2018	0	33039	39830	33166	32407	33190	
2019	0	33034	36242	33349	32991	33018	
2020	0	32889	33060	33232	31897	33204	
2021	0	32672	30659	32529	24704	33432	
2022	0	32370	29838	31378	18508	32710	
2023	0	32016	29225	31659	21701	33287	
2024	0	32421	30334	32168	29109	33024	
2025	0	32450	29586	32434	39049	32770	
2026	0	32152	27536	32678	47941	32449	
2027	0	32318	27939	32756	49735	32439	
2028	0	32272	30046	32855	43367	32839	
2029	0	32323	31511	32741	33381	33215	
2030	0	32801	31833	32775	28482	32955	
2031	0	33203	31939	32837	29159	32893	
2032	0	33652	34143	33078	30645	32752	
2033	0	33915	38872	33037	31335	32827	
2034	0	33821	40805	33010	30470	32917	
2035	0	33052	38454	33023	25908	32651	
2036	0	32640	35139	32839	25629	32610	
2037	0	32512	33979	32911	28077	33415	
2038	0	32352	33129	32902	34075	33366	
2039	0	32262	33942	32768	39355	33799	
2040	0	31992	35361	32455	40191	34299	
2041	0	32306	36284	32460	33362	33573	
2042	0	32890	37114	32869	27307	30834	
2043	0	33277	39117	33022	29048	29905	
2044	0	33186	38873	33072	32275	31403	
2045	0	33095	34486	32835	35069	31455	
2046	0	32592	30361	32498	34491	32395	
2047	0	32088	27743	33044	34085	32754	
2048	0	31420	25829	33329	39184	33632	
2049	0	30945	27254	33042	44214	33997	
2050	0	31501	28359	32458	35673	33040	
2051	0	32372	27409	32272	27260	32015	
2052	0	33376	27178	31599	23915	32425	
2053	0	33548	28890	31078	28130	33222	
2054	0	33694	32097	32238	32617	32677	
2055	0	33466	35189	32775	37216	32549	
2056	0	32668	35607	33053	36679	33164	
2057	0	32187	31090	33128	37430	33285	
2058	0	31908	24916	32920	35633	33223	
2059	0	32403	21843	32571	32109	32337	
2060	0	32617	25669	32509	27396	33181	
2061	0	32360	30780	31510	22599	33140	
2062	0	32713	35813	31751	23341	32507	
2063	0	33470	39671	32386	29236	33085	
2064	0	34078	43294	32317	38666	32646	
2065	0	34992	45511	32147	43207	32283	
2066	0	35800	44653	32511	41991	32599	
2067	0	35598	41717	33351	33761	32421	
2068	0	34712	37402	33788	26399	32254	
2069	0	33552	33249	33029	25547	32839	
2070	0	32541	27983	32627	26843	33024	
2071	0	32052	23305	33357	31548	34018	
2072	0	31384	20163	34011	32808	33623	
2073	0	30598	19985	33898	35614	33196	
2074	0	30509	23521	33360	41659	32955	
2075	0	30760	28763	32539	37004	32721	
2076	0	31363	33387	31972	36903	32454	
2077	0	32028	36099	31973	31239	32935	
2078	0	32422	36457	32454	24101	33156	
2079	0	32572	37275	32367	25656	33426	
2080	0	32866	39291	32684	35858	32744	
2081	0	33153	41688	33140	42230	32317	
2082	0	33530	43619	33388	37043	32607	
2083	0	33399	43595	33200	34944	32907	
2084	0	33644	41746	33168	32685	32625	
2085	0	33992	38139	33168	27904	32315	
2086	0	33966	33112	33060	25955	32530	
2087	0	33914	26848	32888	31768	32592	
2088	0	33392	21802	33072	38839	32652	
2089	0	32801	18768	32983	39257	32855	
2090	0	32528	17881	32960	33879	32736	
2091	0	32244	20021	32772	25197	32651	
2092	0	31934	23267	32967	21164	32799	
2093	0	31725	25539	32683	24043	33047	
2094	0	32083	32433	32850	28525	33296	
2095	0	32772	40071	32885	32221	33479	
2096	0	33026	45046	32839	34243	33025	
2097	0	32770	47085	33042	38301	32263	
2098	0	32523	45275	32960	42673	32144	
2099	0	32080	39698	32845	39851	31742	
2100	0	31640	34221	32797	38131	31846	
2101	0	31730	30485	32564	32891	32537	
2102	0	32048	28544	32742	27885	33351	
2103	0	32023	27725	32720	29343	34216	
2104	0	32178	27882	32847	34810	33579	
2105	0	32841	29362	32839	37226	33557	
2106	0	33536	30528	32738	30869	34535	
2107	0	33526	28733	32581	27961	35819	
2108	0	33186	28068	32651	30665	34281	
2109	0	32938	29499	32655	33883	33257	
2110	0	32505	31697	32589	32621	34659	
2111	0	32893	33243	32860	34148	36464	
2112	0	33626	33287	32812	34847	35161	
2113	0	33660	33607	32759	34031	31226	
2114	0	33581	34631	32467	30989	31823	
2115	0	32732	36416	32279	26761	28914	
2116	0	32260	36167	32053	25777	26891	
2117	0	32016	33634	32300	31730	27236	
2118	0	32413	30710	32433	35847	26819	
2119	0	33684	31264	31922	32000	29266	
2120	0	34470	33137	31744	31717	31680	
2121	0	34853	35986	32395	32915	31916	
2122	0	34256	37666	33052	35682	32863	
2123	0	33325	35840	33141	37984	34384	
2124	0	32444	31936	32825	38361	35107	
2125	0	31849	29017	32724	35879	34201	
2126	0	31470	28701	32972	30523	33828	
2127	0	31358	29029	33358	26707	34269	
2128	0	31484	30615	33474	32744	33733	
2129	0	31448	34130	33442	35459	34460	
2130	0	31520	37142	32263	39200	36661	
2131	0	31839	38295	32723	38911	36802	
2132	0	32337	38429	33464	33042	35048	
2133	0	32878	37199	32621	31857	31702	
2134	0	33117	36588	32277	34186	32191	
2135	0	32844	32614	32110	33607	30838	
2136	0	33112	27512	31714	28302	29813	
2137	0	33246	26112	31599	24832	31149	
2138	0	33300	27890	31629	25595	31897	
2139	0	33184	30819	32719	29030	33321	
2140	0	32920	33199	32903	30831	33575	
2141	0	32450	32775	33273	31079	33351	
2142	0	32507	31825	33036	33882	34429	
2143	0	33234	31388	32735	37317	35474	
2144	0	33934	32742	32661	38203	36295	
2145	0	33974	33183	33163	35347	35335	
2146	0	33480	30193	33238	34183	30962	
2147	0	33524	27263	33117	35559	29759	
2148	0	33440	25930	32949	32830	32793	
2149	0	33140	25291	32809	30375	31394	
2150	0	33282	27628	31987	24136	31475	
2151	0	33589	31760	32181	20816	33315	
2152	0	32672	36987	32705	24507	35392	
2153	0	31402	41917	32978	37250	34256	
2154	0	31308	44388	33307	51048	34242	
2155	0	31364	45300	33330	53616	30914	
2156	0	32008	42855	33103	47145	27674	
2157	0	31888	38865	32718	34975	31681	
2158	0	32390	33378	32775	25565	30461	
2159	0	32404	26748	32907	24846	33063	
2160	0	32621	23218	32818	27602	36733	
2161	0	32512	20236	32898	27858	34379	
2162	0	33788	21204	32741	26680	31732	
2163	0	34957	24699	32960	27813	27260	
2164	0	35076	28538	32762	31695	29368	
2165	0	34436	32707	32886	33551	33706	
2166	0	33302	37212	32889	34457	33631	
2167	0	31822	40022	33117	31256	33432	
2168	0	30094	39884	33055	25434	33143	
2169	0	29162	38427	32920	23603	33765	
2170	0	29368	36185	32799	26055	34057	
2171	0	29703	33482	32568	30206	30749	
2172	0	31294	33432	32464	39525	31504	
2173	0	33404	34628	32517	42718	35038	
2174	0	35552	36627	32263	41131	36375	
2175	0	36357	38919	31675	38658	35825	
2176	0	35632	38567	32044	37883	37421	
2177	0	34480	37315	32529	34150	35514	
2178	0	33889	32225	32436	30416	33208	
2179	0	33415	25557	32751	30038	29044	
2180	0	33088	24329	32815	32925	30978	
2181	0	32844	27515	32661	31990	29402	
2182	0	32767	30829	32889	30628	30554	
2183	0	32281	30937	33076	31140	33281	
2184	0	31785	29208	33059	31797	34436	
2185	0	31819	27098	33047	31812	32758	
2186	0	31501	26016	32784	30819	30254	
2187	0	31521	25592	32895	31543	30503	
2188	0	31794	26159	32775	30593	32098	
2189	0	31517	29059	32592	27655	34293	
2190	0	31963	32381	32698	28261	33789	
2191	0	32712	35862	32622	34466	31854	
2192	0	33742	40542	32707	38485	32580	
2193	0	34612	43174	32491	36282	30843	
2194	0	35330	40620	32334	36059	30317	
2195	0	35126	36246	31997	33636	32977	
2196	0	34605	34413	32371	32071	33917	
2197	0	33664	35783	32722	35667	32039	
2198	0	32507	35737	32955	34552	32880	
2199	0	31514	34502	32979	30943	34311	
2200	0	31239	33966	32967	37184	34374	
2201	0	31548	35239	33001	37329	34759	
2202	0	31587	35523	33166	31879	34309	
2203	0	31574	32148	33126	29601	31530	
2204	0	31624	29255	33036	30881	33093	
2205	0	32011	26439	33154	32077	33913	
2206	0	32244	25341	33085	34439	33568	
2207	0	32583	29535	32283	35830	32135	
2208	0	32792	34008	31945	37921	32159	
2209	0	33049	37209	32253	41623	32556	
2210	0	32512	36227	32731	37056	32975	
2211	0	32408	34591	32969	24134	32671	
2212	0	32292	32569	32521	14213	32703	
2213	0	32028	30097	32317	16518	32929	
2214	0	32165	28465	32390	27014	33044	
2215	0	32678	26447	32656	34135	32929	
2216	0	33226	25514	32915	41555	31990	
2217	0	33815	27026	33005	48345	32763	
2218	0	34172	32248	33055	45328	33001	
2219	0	34144	36320	33010	35100	32482	
2220	0	34226	38391	32911	30215	32051	
2221	0	33838	39527	32939	32015	32931	
2222	0	33490	38311	32999	29513	34034	
2223	0	33306	33799	32923	27947	33641	
2224	0	32977	29259	32707	25394	31928	
2225	0	32717	27746	32805	26519	32449	
2226	0	32430	28779	32382	27218	32818	
2227	0	32432	28877	31931	30847	32887	
2228	0	31785	28692	32499	37239	32845	
2229	0	31722	29415	32639	37319	32960	
2230	0	32455	30896	32504	34729	32639	
2231	0	32682	35747	32722	33152	32647	
2232	0	33082	40380	32796	36930	32541	
2233	0	33660	44964	33068	40980	32710	
2234	0	34075	45495	32891	37147	32911	
2235	0	33682	40317	32890	32735	32965	
2236	0	32466	33836	32836	26370	33702	
2237	0	31512	27229	33018	22973	34426	
2238	0	30688	23413	32997	25557	34243	
2239	0	29935	24319	33248	29059	33561	
2240	0	30060	27735	32912	31656	32468	
2241	0	31402	29286	32805	36398	32080	
2242	0	32636	30561	33069	40477	32257	
2243	0	33284	33010	32791	41648	33119	
2244	0	33976	32597	32565	36063	32315	
2245	0	34887	32023	31107	35920	31032	
2246	0	35516	32079	30539	35794	32386	
2247	0	35542	30873	31725	31341	32381	
2248	0	34676	30328	32313	25925	31303	
2249	0	33607	30760	32844	23672	31076	
2250	0	32770	34159	32985	26921	32956	
2251	0	31908	36103	32989	31111	34471	
2252	0	31317	34931	33083	32608	34922	
2253	0	31354	33197	32931	32723	34273	
2254	0	31739	33481	33140	31781	34351	
2255	0	31672	34736	33153	26878	33146	
2256	0	31234	35003	33007	26221	32170	
2257	0	31698	35495	32934	29362	30038	
2258	0	32356	34535	32711	40967	29921	
2259	0	32600	32462	32768	47793	31916	
2260	0	33101	31399	32624	48339	33080	
2261	0	34624	29637	32774	41848	33678	
2262	0	35124	28132	32711	32515	34267	
2263	0	34774	27568	32825	25879	34231	
2264	0	33891	30235	32928	26714	35296	
2265	0	33075	34713	32913	32771	35546	
2266	0	32455	38496	32943	35847	35467	
2267	0	32332	38064	32745	33287	34446	
2268	0	32923	34616	32754	30068	31616	
2269	0	33827	32204	32597	27369	33386	
2270	0	33615	30369	32503	27205	29753	
2271	0	32360	29927	32747	26830	26058	
2272	0	31952	30855	32495	29459	26985	
2273	0	31808	33885	32815	34488	30417	
2274	0	32322	35728	32875	38062	33154	
2275	0	33056	39472	32987	39916	35429	
2276	0	32762	42562	32995	35835	32815	
2277	0	32021	45612	33076	29045	32839	
2278	0	30910	46959	33036	25506	32711	
2279	0	30024	43719	33132	28669	33684	
2280	0	30208	35980	33016	32804	33682	
2281	0	31088	24868	32696	29104	33116	
2282	0	32386	15008	32470	29924	33712	
2283	0	32840	11164	32361	41138	33856	
2284	0	33240	16455	32400	50590	34073	
2285	0	33298	23613	32282	48851	32421	
2286	0	32841	29716	32539	38210	32710	
2287	0	32903	34552	32623	29769	34154	
2288	0	33336	37865	32712	21465	34241	
2289	0	33630	40279	32613	20450	32865	
2290	0	33602	39939	32647	24135	32153	
2291	0	33790	37575	32729	28697	32664	
2292	0	34312	32144	32763	34482	31548	
2293	0	35088	25861	32882	37690	31207	
2294	0	35341	21937	32805	35282	33988	
2295	0	34901	21688	32963	30966	35047	
2296	0	34204	25471	33100	33069	34173	
2297	0	33079	29713	32950	35181	34041	
2298	0	31536	34280	32985	34200	33287	
2299	0	30665	38887	33129	33499	32040	
2300	0	30349	43467	33224	33287	31893	
2301	0	30384	46698	32957	32341	31561	
2302	0	30304	47970	32872	25817	30521	
2303	0	30224	44291	32545	21673	32257	
2304	0	30336	37496	32228	26594	32440	
2305	0	31560	30244	32581	37068	34887	
2306	0	33204	23458	32464	45157	34064	
2307	0	34818	19731	32624	45277	32568	
2308	0	36016	18926	32660	31341	32540	
2309	0	36174	23073	32578	19802	32461	
2310	0	35074	27538	32671	24769	32553	
2311	0	32613	29762	32534	37446	31515	
2312	0	31252	30293	32792	43128	32221	
2313	0	31840	33223	32619	41394	33586	
2314	0	33028	36627	32587	37097	34170	
2315	0	33732	36915	32205	35183	31967	
2316	0	34154	35229	32454	30203	33730	
2317	0	32766	32115	32579	24884	34020	
2318	0	32179	31657	32792	26415	33576	
2319	0	32198	32498	32964	29237	32967	
2320	0	32092	33861	32685	33645	31688	
2321	0	31948	35577	32429	36818	30604	
2322	0	31721	36547	32403	35727	31207	
2323	0	32010	36935	32695	33869	33124	
2324	0	32824	38919	32775	29018	33001	
2325	0	33799	39871	32832	26340	32660	
2326	0	33871	39599	32941	24071	33243	
2327	0	33628	39207	32887	28453	33032	
2328	0	33992	38699	32923	30871	33267	
2329	0	34217	38241	32879	30352	33535	
2330	0	33808	36871	32899	30207	34151	
2331	0	32570	35056	33040	34576	33601	
2332	0	31972	29184	32831	38166	33134	
2333	0	32196	20837	32930	39914	33177	
2334	0	32360	16114	32941	39242	33057	
2335	0	32512	16698	32662	37437	31899	
2336	0	33044	24293	32557	31473	30211	
2337	0	33142	34571	32588	32427	32178	
2338	0	32768	41930	32873	39374	34628	
2339	0	31608	42571	32941	42624	34904	
2340	0	30501	39515	33024	39639	34781	
2341	0	30172	33267	32996	34754	34637	
2342	0	30322	25196	32969	29895	34109	
2343	0	30944	20030	32527	26223	30320	
2344	0	31536	21855	32387	23977	29681	
2345	0	32893	27209	31998	26450	28067	
2346	0	34902	32839	32046	30736	31508	
2347	0	36363	36338	32585	35792	33414	
2348	0	36914	38025	32813	38042	33152	
2349	0	35552	37795	32986	37547	29562	
2350	0	33517	36447	33065	35819	32950	
2351	0	32674	36277	32904	33353	32483	
2352	0	32349	36990	32998	28125	32014	
2353	0	32199	37156	32952	24363	33764	
2354	0	31595	37572	32935	22535	34584	
2355	0	31386	37405	32885	25201	34942	
2356	0	31128	34212	32869	31393	32201	
2357	0	31115	29724	32855	36722	30919	
2358	0	31062	26802	32796	32460	32738	
2359	0	31224	26416	32832	31564	33935	
2360	0	31559	28268	32362	33001	32877	
2361	0	31350	32297	32272	31275	31960	
2362	0	31728	37421	32224	32006	32507	
2363	0	32396	39648	32410	32415	33861	
2364	0	32784	37450	32646	33613	33708	
2365	0	33749	31510	32631	41031	32660	
2366	0	34704	26405	32612	47394	32497	
2367	0	35497	23975	32612	46061	32947	
2368	0	35691	24446	32614	35428	33448	
2369	0	34974	26523	32799	29252	33844	
2370	0	33863	29825	33037	31473	33058	
2371	0	32565	32666	33088	32997	32927	
2372	0	32376	34878	33007	27336	33889	
2373	0	32605	36713	32989	23031	33857	
2374	0	33331	37549	32947	23165	33851	
2375	0	33594	37381	32739	28584	33675	
2376	0	32927	35394	32633	39309	32613	
2377	0	31783	34526	32827	42958	31343	
2378	0	31360	33981	32617	41143	32719	
2379	0	31338	34348	32719	34868	33308	
2380	0	30808	35077	32647	28745	33337	
2381	0	30678	34600	32608	26498	33193	
2382	0	30394	33095	32679	23153	32988	
2383	0	31225	32619	32785	21105	32443	
2384	0	32730	31401	32740	26555	31563	
2385	0	34387	32584	32640	34738	31852	
2386	0	35485	33015	32379	39834	31827	
2387	0	35098	32643	32386	40083	32631	
2388	0	33793	32429	32541	36359	32583	
2389	0	32498	31779	32775	34969	33362	
2390	0	31687	32289	32865	33194	33519	
2391	0	31568	34453	32647	33005	33395	
2392	0	32144	35603	32606	34119	33145	
2393	0	33400	33320	32444	36880	32283	
2394	0	35152	29400	32447	36179	31878	
2395	0	36072	25730	32540	33325	32705	
2396	0	36069	25850	32630	28437	33252	
2397	0	35192	26874	32573	26303	33127	
2398	0	34023	28068	32491	26759	33302	
2399	0	33029	31789	32568	32013	33613	
2400	0	32412	37654	32484	36487	33795	
2401	0	31912	42503	32283	35352	32173	
2402	0	31904	44091	32581	33620	32775	
2403	0	32270	41091	33049	30927	32642	
2404	0	32562	34515	33129	32969	31557	
2405	0	33466	27173	33021	36311	30517	
2406	0	33469	21563	32768	37539	30138	
2407	0	32706	20919	32565	35510	31593	
2408	0	32048	24555	32960	30378	33371	
2409	0	31588	28606	33059	27414	33440	
2410	0	31433	30637	32951	29432	33114	
2411	0	30773	32365	32967	31528	33430	
2412	0	30818	35463	33007	32373	33080	
2413	0	31175	37787	32985	31820	32967	
2414	0	30862	38631	33046	33549	33208	
2415	0	31084	38803	32976	34586	33155	
2416	0	31520	39634	32953	30300	32896	
2417	0	32016	40045	32951	29591	33618	
2418	0	32349	40667	32962	30959	33647	
2419	0	32367	39866	32896	28978	33192	
2420	0	31941	37485	32787	29093	32727	
2421	0	32136	36073	32720	30935	33203	
2422	0	32839	33413	32763	35445	32999	
2423	0	33646	29165	32664	40530	32939	
2424	0	34352	23810	32731	41144	33066	
2425	0	35150	21069	32775	37620	33386	
2426	0	35999	22277	32583	36007	33719	
2427	0	35662	26200	32643	32775	33432	
2428	0	34000	30456	32763	31265	34771	
2429	0	32553	33751	32979	33951	34675	
2430	0	31361	37268	32893	32875	33892	
2431	0	29944	41514	32805	33007	31479	
2432	0	28828	43584	32644	36479	30500	
2433	0	28369	42642	32643	40055	30550	
2434	0	28743	36099	32800	34494	33816	
2435	0	29792	24296	32632	29221	35792	
2436	0	31517	15896	32514	27551	37906	
2437	0	34224	12383	32433	25631	36346	
2438	0	37033	15730	32126	25722	29695	
2439	0	38556	23002	32414	23278	28200	
2440	0	37647	30875	32500	23088	32243	
2441	0	35652	36824	32736	28687	32373	
2442	0	33715	41599	32995	35258	28984	
2443	0	32201	44267	33192	39239	27755	
2444	0	31189	47388	33322	38276	28676	
2445	0	30814	48967	33157	38211	28242	
2446	0	30572	48199	33140	37469	28646	
2447	0	31206	44155	32963	32285	29907	
2448	0	32592	37974	32687	29282	33083	
2449	0	34122	31370	32766	33200	34201	
2450	0	34940	26928	32623	35399	34586	
2451	0	35335	26242	32797	38599	36382	
2452	0	34636	27591	32626	43013	35664	
2453	0	33174	28475	32443	41351	35143	
2454	0	31920	26350	32649	36032	34543	
2455	0	32252	23134	32566	25104	33680	
2456	0	32696	22429	32869	21477	32348	
2457	0	32960	24215	32960	23750	34937	
2458	0	33130	26539	32951	27580	34951	
2459	0	32368	28725	33045	30185	33663	
2460	0	31748	30441	32812	34785	32568	
2461	0	31968	32555	32795	34331	34363	
2462	0	32180	34498	32599	32461	35162	
2463	0	31974	36087	32534	31299	33670	
2464	0	30990	37218	32595	34514	33337	
2465	0	31236	38950	32543	37963	32713	
2466	0	32328	40431	32285	36485	31854	
2467	0	33304	41661	32502	28048	31031	
2468	0	33904	42105	32736	24059	32909	
2469	0	34690	41219	33001	25493	32758	
2470	0	34125	37106	32975	31652	32579	
2471	0	32955	29366	32908	36976	31278	
2472	0	31751	24372	32978	41836	30951	
2473	0	31488	23768	33021	44098	33260	
2474	0	31747	27302	33143	41693	33344	
2475	0	31892	32060	32775	34183	33347	
2476	0	32704	35997	32577	26800	33152	
2477	0	32671	38604	32297	31862	33087	
2478	0	32208	39043	32408	35366	33861	
2479	0	31872	38658	32021	29933	32839	
2480	0	32394	35643	32152	24109	32755	
2481	0	33036	29842	32364	25494	31036	
2482	0	33780	26323	32438	30831	31883	
2483	0	34057	24744	32722	35622	32163	
2484	0	34594	24292	32647	35437	33151	
2485	0	34600	25055	32845	34287	33178	
2486	0	34143	26200	32941	31205	32775	
2487	0	34149	29586	32943	28117	33061	
2488	0	33922	33554	33083	28640	33287	
2489	0	33287	36652	33109	34666	32812	
2490	0	32896	36790	33128	42354	33362	
2491	0	32016	36285	33091	43526	32683	
2492	0	30586	34711	32774	35167	32556	
2493	0	30453	33019	32707	29967	33755	
2494	0	31376	30295	32612	31281	33265	
2495	0	32904	28407	32470	32888	31842	
2496	0	34512	28592	32505	32245	33565	
2497	0	35155	29532	32645	32139	34727	
2498	0	35192	30325	32743	30727	32963	
2499	0	34354	30744	32704	32065	33067	
2500	0	32921	32337	32647	32135	33259	
2501	0	32156	35117	32784	29786	34224	
2502	0	31680	36583	32716	26971	31253	
2503	0	31057	34940	32875	26135	29516	
2504	0	31012	32877	32916	28711	30727	
2505	0	31157	33577	32875	29726	30368	
2506	0	31920	37879	32747	33868	32080	
2507	0	33162	44290	32750	39595	34813	
2508	0	34004	46347	32730	42123	33474	
2509	0	33869	43920	32851	37454	34258	
2510	0	32922	37707	32815	30834	35801	
2511	0	31579	30347	32704	26594	36048	
2512	0	30919	27405	32837	27872	37007	
2513	0	30705	26494	32600	29569	37343	
2514	0	30626	25041	32874	27984	35924	
2515	0	30650	23171	32848	30076	29178	
2516	0	30880	22390	32744	40496	25801	
2517	0	31979	24339	32835	46139	26942	
2518	0	33808	28060	32495	41734	28064	
2519	0	34705	31904	32440	30898	27812	
2520	0	34585	37491	32543	27666	30203	
2521	0	34595	42386	32437	32824	34209	
2522	0	34940	46862	32508	39096	33766	
2523	0	34856	47098	33015	41078	32536	
2524	0	34442	41447	32888	42814	35062	
2525	0	34188	30682	32888	38372	30976	
2526	0	33758	22149	33160	29882	31511	
2527	0	33469	21133	33006	22876	33275	
2528	0	32868	24823	32693	18104	32610	
2529	0	32245	30243	32913	20235	33193	
2530	0	31596	34471	32960	25139	34217	
2531	0	31030	36673	32860	29649	34106	
2532	0	30716	36930	32902	31477	33023	
2533	0	31013	35584	32833	40048	33579	
2534	0	31546	32083	32969	45528	34446	
2535	0	31600	28118	32839	39085	34355	
2536	0	31204	26270	32568	27824	33234	
2537	0	30520	26931	32767	23615	34335	
2538	0	30290	28071	32825	27535	34515	
2539	0	30440	29664	32897	33590	34064	
2540	0	31088	32775	32775	37991	34045	
2541	0	32092	35934	32696	38018	31886	
2542	0	33018	37947	32608	38244	32681	
2543	0	34688	40012	32324	32359	30921	
2544	0	36521	39640	32090	28747	32613	
2545	0	36936	36339	32089	28697	34960	
2546	0	36770	33553	32372	28115	39323	
2547	0	36148	32013	32333	31629	39130	
2548	0	35184	31168	32017	36752	37501	
2549	0	34179	30326	31716	40632	34172	
2550	0	33277	29795	32040	41169	24334	
2551	0	33349	28623	32761	39040	20969	
2552	0	33276	26942	33131	34964	25772	
2553	0	32028	29618	33218	30504	31259	
2554	0	31810	33147	33287	27892	31482	
2555	0	31936	34472	33215	25656	33119	
2556	0	31901	35330	33065	25673	34999	
2557	0	31773	37629	33017	29880	33312	
2558	0	32121	40956	32881	31751	35242	
2559	0	32236	41499	32946	32283	38674	
2560	0	32581	40706	32966	32878	38109	
2561	0	32472	38930	32947	36648	33669	
2562	0	31936	35109	32833	36052	30098	
2563	0	31381	30436	32995	32317	26852	
2564	0	31404	26310	32871	27632	26514	
2565	0	30959	25554	32646	25191	30304	
2566	0	30529	26060	32835	22921	31731	
2567	0	30448	27119	32706	26155	31882	
2568	0	30792	26063	32313	37004	31568	
2569	0	31472	22100	32572	42588	31429	
2570	0	33036	19071	32518	42066	34144	
2571	0	34816	21126	32304	40595	35271	
2572	0	36293	25348	32450	36384	34793	
2573	0	37376	31895	32344	32570	33538	
2574	0	36720	39495	32749	32488	33918	
2575	0	35350	44415	33086	32256	33594	
2576	0	33876	46825	33168	33764	34675	
2577	0	33886	47414	33386	36223	34871	
2578	0	33407	45351	33275	34895	33241	
2579	0	33266	40915	33325	33017	32426	
2580	0	33136	35512	33397	30470	33650	
2581	0	32116	31197	33401	27951	31800	
2582	0	30795	30675	33254	29414	33707	
2583	0	29478	30114	33371	30844	34784	
2584	0	29025	28373	33073	33187	34574	
2585	0	29568	24983	33000	32745	33996	
2586	0	30674	22061	32390	30637	33026	
2587	0	31094	22034	30859	30727	32531	
2588	0	31481	24592	30642	26529	32334	
2589	0	31687	28844	31911	26256	31450	
2590	0	33048	31812	32723	29147	30539	
2591	0	34463	33869	32723	31197	31609	
2592	0	34480	33893	32330	35252	32156	
2593	0	34136	33515	31623	40357	32195	
2594	0	33596	34987	31990	38022	32765	
2595	0	33840	38299	32646	34420	33326	
2596	0	33620	40880	32838	40320	33926	
2597	0	33432	39614	33122	45443	33326	
2598	0	32496	37594	33351	44120	32163	
2599	0	32101	34531	33144	36666	33495	
2600	0	32737	32914	33321	26086	34197	
2601	0	33152	33474	33167	18121	31624	
2602	0	33796	31729	32850	23057	32312	
2603	0	33890	27956	32842	30617	33838	
2604	0	33706	25280	32707	35962	33720	
2605	0	32812	25644	32953	38639	32029	
2606	0	30905	30215	33061	37813	31603	
2607	0	28888	34823	33163	35847	32279	
2608	0	28647	36781	32923	32910	31951	
2609	0	30303	35864	32721	28779	32459	
2610	0	33112	34110	32521	27643	31738	
2611	0	35188	34271	32169	28818	32127	
2612	0	37197	34792	32327	24636	33274	
2613	0	38234	35954	32411	21949	33958	
2614	0	37220	37097	32681	26891	33600	
2615	0	35564	36182	32837	35165	32720	
2616	0	34248	33763	32977	41882	33232	
2617	0	33318	32231	32890	42523	34370	
2618	0	32418	32128	32913	39613	33759	
2619	0	31688	32208	32918	33619	32177	
2620	0	30962	30603	32684	26961	31718	
2621	0	30204	28534	32820	25639	31261	
2622	0	29790	25496	32677	31597	32605	
2623	0	29648	23959	32916	37799	34046	
2624	0	30238	24330	32775	38599	31975	
2625	0	31425	26101	32726	33791	32284	
2626	0	32585	29835	32616	26234	31610	
2627	0	33168	34832	32539	25849	34444	
2628	0	32989	39933	32592	27425	34277	
2629	0	32380	44056	32738	34894	33381	
2630	0	31264	46662	32892	42823	33125	
2631	0	30778	46851	32839	43376	32453	
2632	0	31176	42887	32728	42183	31235	
2633	0	32598	37289	32639	37891	31958	
2634	0	34050	31461	32636	32090	32934	
2635	0	34868	27519	32562	27346	33212	
2636	0	34864	25683	32525	26296	32487	
2637	0	35230	26723	32861	27958	33277	
2638	0	34784	29911	32677	29639	33479	
2639	0	34328	30680	32822	31042	33737	
2640	0	33772	31108	32773	29306	34772	
2641	0	33632	33974	32714	25301	35216	
2642	0	33481	36735	32859	26034	34675	
2643	0	32985	34909	32706	31041	33648	
2644	0	32672	33573	32710	38665	32447	
2645	0	32439	31741	32461	40935	32011	
2646	0	31668	28021	32424	36381	28284	
2647	0	31341	25400	32663	37767	25944	
2648	0	32018	25203	32709	37698	30713	
2649	0	32391	25993	32794	33270	33093	
2650	0	32325	29184	32743	27828	33503	
2651	0	32395	30131	32903	25886	33331	
2652	0	32466	29280	32744	29032	33742	
2653	0	32467	30688	32608	35042	33591	
2654	0	32221	32071	32747	35552	32304	
2655	0	32068	33499	32583	33449	34679	
2656	0	32473	35457	32671	33863	35502	
2657	0	33000	36194	32678	34087	34713	
2658	0	33223	36466	32935	33446	35525	
2659	0	32918	35507	32883	34055	35862	
2660	0	32600	33342	32884	31781	31314	
2661	0	32103	31686	32909	27900	26885	
2662	0	31917	32598	32671	24001	32417	
2663	0	32261	32389	32789	23159	33769	
2664	0	32784	31789	32967	30976	31358	
2665	0	32941	33553	32948	39626	31446	
2666	0	32481	35539	32987	37228	33317	
2667	0	32415	36572	32855	32410	32262	
2668	0	32216	37800	32634	30407	32341	
2669	0	31544	37511	32634	41031	32664	
2670	0	31288	33130	32642	49925	33260	
2671	0	31693	28990	32697	50677	31899	
2672	0	33614	27359	32553	43472	31387	
2673	0	35018	28242	32739	30300	32152	
2674	0	35624	30310	32753	19532	31669	
2675	0	34866	30966	32969	16371	33061	
2676	0	32480	29269	32910	20928	33088	
2677	0	30474	28505	32908	30727	32797	
2678	0	29915	28723	32789	38636	33527	
2679	0	31250	29879	31919	40083	33397	
2680	0	32949	31485	31693	36640	33519	
2681	0	34442	34963	31687	30274	34262	
2682	0	35353	38971	32053	25402	35395	
2683	0	35208	41607	31803	28507	30851	
2684	0	35276	43874	32130	33342	31908	
2685	0	35408	42567	32679	36319	32869	
2686	0	35996	37923	33212	36298	34789	
2687	0	35739	32016	33182	34987	33859	
2688	0	34972	27071	33312	32736	31730	
2689	0	33592	26301	33241	30080	33331	
2690	0	31384	30018	33380	22924	33358	
2691	0	28492	33287	33402	24226	31701	
2692	0	27306	35517	33311	29453	32518	
2693	0	27477	36487	33177	38167	32768	
2694	0	29116	34832	32946	44109	31867	
2695	0	31378	33095	32757	43379	31705	
2696	0	33592	30148	32474	34893	32637	
2697	0	34793	28009	32705	27334	32576	
2698	0	34808	27799	32679	26491	33359	
2699	0	34021	28649	32750	30403	33035	
2700	0	32681	28669	32055	32330	33186	
2701	0	32302	29207	32036	30835	33633	
2702	0	31894	28805	32741	28278	34308	
2703	0	31773	30749	32826	32981	34861	
2704	0	31105	35015	32971	37013	33590	
2705	0	30032	39954	33062	39932	32178	
2706	0	29872	41281	32804	40035	31042	
2707	0	30594	41081	32563	38671	29976	
2708	0	32680	40489	32606	35372	30736	
2709	0	35528	40266	32568	29842	32473	
2710	0	37792	37546	32647	23896	32839	
2711	0	39000	32536	32510	20345	33308	
2712	0	39572	26531	32633	26563	33281	
2713	0	37978	22468	32775	35535	33669	
2714	0	35664	19730	33046	38335	32578	
2715	0	33056	20039	32997	36061	32764	
2716	0	31395	23115	33126	34615	32237	
2717	0	30382	26748	32843	32000	33267	
2718	0	29198	29383	32858	26600	33287	
2719	0	28628	31406	32710	27248	33216	
2720	0	28264	33156	32662	38328	32551	
2721	0	28178	35222	32800	44251	32873	
2722	0	29312	38201	32715	44566	33035	
2723	0	30682	40481	32643	37128	32784	
2724	0	32424	42152	32680	28658	32270	
2725	0	34738	41690	32449	24897	32749	
2726	0	36492	40768	32583	27795	31911	
2727	0	36648	37855	32741	28492	32483	
2728	0	35629	32465	32984	27783	33929	
2729	0	34184	27917	33117	31493	33885	
2730	0	32544	24947	33070	37374	32968	
2731	0	31507	24142	32896	37069	33135	
2732	0	31162	26195	32853	33268	31970	
2733	0	31872	29063	32893	28162	32965	
2734	0	33166	30023	32878	29729	34673	
2735	0	33875	31303	32632	30183	33167	
2736	0	33796	33910	32607	32434	32541	
2737	0	32878	37863	32443	34445	32223	
2738	0	31834	40709	32685	32517	32155	
2739	0	30700	40598	32775	29217	31526	
2740	0	29959	39564	32887	30441	32503	
2741	0	30209	39239	32817	31908	33305	
2742	0	30578	38967	32842	29405	33510	
2743	0	31040	37063	32770	26162	33223	
2744	0	31894	35056	32816	27994	32818	
2745	0	33024	33195	32799	37849	32786	
2746	0	33928	31084	32178	48562	31880	
2747	0	34552	28298	31872	49987	32159	
2748	0	34640	25141	32455	45093	34035	
2749	0	35026	22593	33146	33913	34389	
2750	0	35171	23017	33083	31191	33357	
2751	0	34739	25891	33178	34291	30914	
2752	0	34523	29062	32307	35847	31691	
2753	0	33717	32086	32263	35725	32514	
2754	0	33058	34674	32698	27968	32250	
2755	0	32669	34402	32647	21423	32506	
2756	0	33012	31769	32514	22188	32922	
2757	0	32910	31071	32353	24869	32494	
2758	0	32524	29807	32546	24121	32967	
2759	0	32022	28336	32459	27040	33286	
2760	0	31216	28413	32637	37028	33610	
2761	0	31132	32339	32730	44427	32390	
2762	0	31737	37357	33067	41691	32530	
2763	0	32578	41324	33026	34311	33927	
2764	0	33425	45030	33148	26354	32868	
2765	0	34492	48019	33089	26073	33287	
2766	0	34292	46869	33077	31385	32433	
2767	0	32738	41027	32978	34551	33519	
2768	0	31014	36069	32829	32362	34716	
2769	0	30576	30023	32962	29324	33637	
2770	0	30564	25746	32800	33242	33421	
2771	0	31264	24554	32926	38255	30868	
2772	0	32592	26626	32663	42887	31815	
2773	0	33958	27947	32751	44103	30711	
2774	0	34716	26951	32739	37427	29462	
2775	0	35034	26038	32739	31840	29597	
2776	0	35032	26446	33124	25685	31608	
2777	0	33633	28167	32802	21445	33073	
2778	0	32308	30076	31455	24085	35157	
2779	0	31720	32653	31621	30952	34640	
2780	0	30984	34726	32530	36928	34054	
2781	0	31078	34303	33049	44000	32306	
2782	0	31679	33857	32935	44010	31771	
2783	0	32065	34176	32918	34050	33438	
2784	0	32784	33919	32793	25466	33370	
2785	0	33068	35095	32797	23626	33254	
2786	0	33040	35567	32699	23078	33407	
2787	0	33344	34171	32365	24675	34435	
2788	0	33068	31855	32488	28079	33990	
2789	0	32976	29547	32417	31777	33383	
2790	0	33287	27860	32477	39080	32734	
2791	0	33545	27363	32625	42246	33362	
2792	0	34239	27278	32861	37876	33991	
2793	0	34332	25867	33007	34566	33883	
2794	0	33985	24176	32929	29858	32755	
2795	0	33154	25787	33032	24210	30838	
2796	0	33046	29734	32833	24969	31053	
2797	0	33096	36028	32906	32632	32642	
2798	0	32229	41768	32877	42610	33098	
2799	0	31468	44847	32762	43414	32612	
2800	0	30760	45413	32855	36978	33193	
2801	0	30543	44162	32999	32293	32935	
2802	0	30749	40959	32817	31501	33378	
2803	0	32160	36563	32759	31533	33623	
2804	0	33351	33155	33021	31314	32165	
2805	0	34494	31469	32899	31853	31659	
2806	0	34946	32399	32843	32295	29307	
2807	0	34077	32974	33046	28218	30889	
2808	0	32904	31269	33047	25967	32946	
2809	0	32578	30934	33063	27954	32638	
2810	0	32169	30722	33095	31716	33353	
2811	0	31705	28719	33122	38695	34232	
2812	0	31891	28927	33182	41415	33217	
2813	0	32346	30687	32883	37859	33883	
2814	0	32493	32570	32160	31083	33403	
2815	0	32600	35647	31461	29970	30983	
2816	0	32420	36893	31223	29314	32215	
2817	0	32438	36389	32051	32775	32208	
2818	0	32317	33661	31845	34987	33725	
2819	0	32221	30642	31707	36602	34194	
2820	0	31757	28821	32477	32817	33837	
2821	0	31440	27161	32812	31565	34781	
2822	0	31908	25741	33274	33789	34571	
2823	0	32841	26275	33230	37904	32365	
2824	0	33718	28990	33011	37313	30785	
2825	0	34616	32304	33211	31901	31721	
2826	0	35002	37164	33099	26817	32847	
2827	0	34718	41915	33081	24346	33212	
2828	0	33645	46087	33090	23009	32853	
2829	0	33068	46465	33219	26317	32957	
2830	0	32866	41101	33158	30211	34344	
2831	0	32880	32733	32985	36295	34517	
2832	0	33309	24080	32786	40923	29847	
2833	0	33532	20561	32955	41796	31047	
2834	0	33517	20999	32916	40128	32487	
2835	0	33080	23056	32955	34630	33061	
2836	0	32445	25941	32761	29800	32296	
2837	0	31646	29777	32764	29191	33117	
2838	0	31330	32599	32348	28118	33235	
2839	0	31300	33494	31343	31819	33082	
2840	0	30963	34834	32090	36378	33734	
2841	0	30936	36157	32614	39892	33679	
2842	0	30694	35419	32741	39781	32775	
2843	0	30836	34138	32954	32345	33488	
2844	0	31442	33783	32866	27971	33327	
2845	0	32942	34597	32941	25095	33041	
2846	0	34390	36210	32869	16932	32922	
2847	0	35636	37595	32761	20676	32733	
2848	0	36408	38177	32910	33884	32722	
2849	0	35922	36304	32984	44592	31767	
2850	0	34024	31712	32932	46082	31955	
2851	0	32285	27171	33037	43253	32475	
2852	0	32105	23689	33133	42040	33235	
2853	0	32549	22406	32994	39745	34659	
2854	0	32393	25469	32865	31661	34412	
2855	0	32315	29814	32797	27019	34803	
2856	0	31988	32576	32495	27283	33739	
2857	0	31916	34370	32500	29095	30356	
2858	0	32262	35271	32550	30407	30994	
2859	0	32770	35041	32835	29718	32966	
2860	0	33154	34478	32967	27578	31206	
2861	0	32941	33709	32813	24155	30227	
2862	0	32417	33048	32575	24035	32309	
2863	0	32006	32789	32263	28381	33904	
2864	0	31873	32820	32207	33064	35251	
2865	0	32109	33583	31958	31751	34593	
2866	0	32652	35792	32361	32475	31554	
2867	0	32923	39182	32802	35517	33047	
2868	0	32906	40886	32963	37915	32615	
2869	0	32931	41680	32998	37997	32907	
2870	0	33204	39881	32944	38341	31998	
2871	0	33803	35955	32895	41287	30843	
2872	0	33984	33124	32775	41326	32396	
2873	0	33063	31181	32895	40185	32404	
2874	0	31632	30950	32982	38716	29383	
2875	0	30344	31720	33021	33863	29919	
2876	0	30192	32283	33194	28586	31521	
2877	0	31160	31144	33047	27860	32737	
2878	0	33278	26496	33317	24846	34183	
2879	0	35876	22412	33179	23352	33502	
2880	0	36648	22023	32110	26266	31945	
2881	0	35768	23879	31376	32807	31321	
2882	0	33690	26075	31896	36826	33483	
2883	0	32364	28707	32549	37509	35614	
2884	0	31349	31371	32582	32568	36835	
2885	0	31812	34207	32701	27750	36006	
2886	0	32898	35733	33124	23139	34674	
2887	0	33518	36371	33218	21064	30932	
2888	0	33564	36888	33169	26503	32099	
2889	0	32930	35657	33239	32442	32453	
2890	0	31945	35718	33259	38848	31160	
2891	0	30905	35504	32880	46104	32258	
2892	0	30885	34855	31931	47833	32809	
2893	0	32044	31239	31800	40600	34444	
2894	0	33481	25471	32429	32390	33564	
2895	0	33865	22127	32637	27831	32662	
2896	0	33497	23367	32321	30565	32563	
2897	0	33287	27719	31842	34255	31931	
2898	0	33240	31488	31554	37687	31239	
2899	0	32893	34134	31867	36661	32327	
2900	0	32585	35859	32659	33264	32992	
2901	0	32450	36985	33298	28426	33621	
2902	0	32808	38503	33577	28794	34387	
2903	0	32568	40772	33661	27438	33474	
2904	0	32199	43442	33531	25384	31089	
2905	0	31866	43911	33419	28658	32454	
2906	0	32296	41990	33005	37202	32820	
2907	0	32667	36176	32997	40403	32990	
2908	0	32101	30914	33112	37225	33202	
2909	0	32043	29335	32669	28835	33730	
2910	0	32608	30957	32263	28379	33255	
2911	0	33628	33438	32208	30537	32452	
2912	0	34098	36572	32211	34047	32986	
2913	0	33632	38725	32478	34127	34027	
2914	0	33321	39271	32753	31922	33270	
2915	0	32510	37446	32765	30077	32996	
2916	0	31544	34028	32858	26902	33119	
2917	0	31162	28239	33012	27243	33392	
2918	0	31596	22941	33066	32386	32984	
2919	0	32426	19288	33084	35062	30790	
2920	0	33607	19574	33019	37986	32595	
2921	0	34304	22535	32727	38232	34088	
2922	0	34650	27872	32775	36772	31625	
2923	0	34409	32528	32466	36371	32056	
2924	0	33660	36466	32363	35007	32665	
2925	0	33347	41016	32818	33284	32327	
2926	0	33106	41159	33014	32920	32943	
2927	0	33129	35751	32903	31595	32507	
2928	0	33454	28707	32861	31081	33773	
2929	0	33237	26695	32827	32549	33144	
2930	0	32925	26982	32827	35847	32678	
2931	0	32208	27487	32895	36121	33037	
2932	0	31400	29479	32886	34702	33103	
2933	0	30986	33430	32853	31185	33274	
2934	0	30524	36799	32711	28602	32973	
2935	0	30290	39267	32843	27371	32495	
2936	0	30334	40775	32889	32186	33203	
2937	0	30885	39287	32785	33446	33887	
2938	0	31665	36374	32627	30826	33875	
2939	0	32253	33785	32647	28375	33270	
2940	0	33433	31531	32690	24969	32621	
2941	0	34660	31448	32497	26659	33218	
2942	0	34766	31774	32656	32730	32699	
2943	0	34276	31012	32529	38441	31293	
2944	0	33292	30736	32632	44272	29993	
2945	0	32832	31451	32768	46013	29639	
2946	0	32936	32406	32938	40851	31512	
2947	0	33244	32310	32918	34743	31547	
2948	0	34146	30468	32600	28558	32472	
2949	0	34736	28347	32767	26084	34823	
2950	0	34375	28341	32719	29029	34737	
2951	0	33394	30339	32887	30872	34599	
2952	0	32006	32881	32759	31295	34787	
2953	0	30931	33192	32883	29867	33754	
2954	0	29989	32791	32745	30686	32162	
2955	0	29587	32450	32725	31749	30399	
2956	0	29944	31399	32527	33037	31309	
2957	0	31003	31872	32595	32135	33897	
2958	0	32628	34207	32321	30123	35169	
2959	0	33900	35818	32120	28592	35268	
2960	0	35295	36359	31713	28118	34621	
2961	0	36117	36466	32322	29601	27867	
2962	0	36010	34974	32650	28898	29721	
2963	0	35272	32642	33085	32343	31492	
2964	0	34328	30692	33190	39881	34111	
2965	0	32932	28845	33612	37817	32734	
2966	0	32240	29439	33171	30173	33612	
2967	0	31929	31048	32523	31996	29344	
2968	0	31522	32524	31645	42852	28705	
2969	0	31336	32913	31562	47588	30761	
2970	0	31000	32759	32683	43460	34785	
2971	0	31063	31490	33280	34438	35667	
2972	0	31555	31424	33085	27334	33936	
2973	0	32327	31427	32280	25685	33546	
2974	0	33008	31990	32675	28533	34413	
2975	0	33151	33089	33169	30617	33107	
2976	0	32754	34555	33237	32546	32470	
2977	0	32445	36999	33263	33190	30959	
2978	0	32464	38983	33233	33200	31597	
2979	0	33028	39406	33159	32449	33045	
2980	0	33538	38087	32672	31182	33747	
2981	0	33980	34679	31891	31721	33844	
2982	0	34128	32373	31559	31751	34291	
2983	0	34170	32065	31410	31151	33658	
2984	0	33928	34013	31706	32199	33033	
2985	0	33581	34586	31929	34544	32374	
2986	0	33118	33122	32745	33957	32919	
2987	0	32647	29486	33306	29763	32909	
2988	0	32327	25154	33341	24376	32647	
2989	0	32312	22423	33128	23619	32869	
2990	0	32214	23993	33039	28219	34255	
2991	0	32040	26092	32690	33589	33274	
2992	0	32136	28299	32644	40375	32745	
2993	0	32638	31439	32681	41337	33468	
2994	0	33208	35771	32765	37437	33157	
2995	0	33105	39926	32909	33103	33227	
2996	0	32588	42039	32989	32753	33418	
2997	0	32041	41831	33104	32095	32288	
2998	0	31461	38990	33111	31784	32929	
2999	0	31140	35627	32935	31037	32481	
3000	0	30562	32745	32944	36565	31704	
3001	0	30055	30893	32853	40680	32890	
3002	0	30362	29683	32975	38018	32704	
3003	0	30754	30951	32825	33625	31834	
3004	0	32402	34189	32645	30614	32450	
3005	0	35108	36951	32495	32885	32950	
3006	0	37216	35995	32433	32163	32843	
3007	0	38165	33258	32601	31205	32652	
3008	0	36912	29926	32613	32957	32729	
3009	0	35188	28955	32678	33725	32917	
3010	0	33808	27372	32646	32279	32711	
3011	0	32499	24375	32798	32029	32412	
3012	0	31525	23141	32658	28194	32806	
3013	0	31268	23334	32666	26157	33927	
3014	0	31410	24621	32599	25063	33031	
3015	0	31944	28238	32862	28440	32998	
3016	0	32324	32805	32802	33287	33174	
3017	0	32424	35597	32811	37144	32787	
3018	0	32360	35158	32717	39209	33287	
3019	0	32253	33391	32589	36950	34099	
3020	0	32253	31988	32643	34431	33383	
3021	0	32384	32997	32550	31883	31620	
3022	0	33120	35091	32637	28847	32168	
3023	0	33272	38011	32615	28010	32583	
3024	0	33088	40698	32757	30849	32495	
3025	0	33056	41697	32730	34234	32323	
3026	0	32532	43747	32711	32125	30970	
3027	0	32221	45111	32751	30458	31650	
3028	0	32138	43015	32815	31687	33827	
3029	0	32771	35874	32669	33680	33735	
3030	0	33144	26234	32623	36794	33529	
3031	0	33188	20674	32548	37651	33846	
3032	0	32908	20665	32357	34767	33188	
3033	0	33018	25691	32549	29651	31879	
3034	0	33538	30351	32652	25014	30703	
3035	0	34010	32884	32747	25403	32162	
3036	0	33472	33286	32728	31239	34084	
3037	0	32514	34425	32904	39170	32165	
3038	0	31570	34538	32903	46924	32277	
3039	0	31145	34215	32890	43052	33257	
3040	0	30518	33019	32853	34468	33913	
3041	0	29403	33250	32859	29449	34321	
3042	0	29053	33057	32759	29091	33711	
3043	0	29136	31483	32757	32029	30924	
3044	0	30407	29439	32635	34408	32594	
3045	0	32354	29925	32723	33606	33071	
3046	0	34102	32097	32813	32397	32911	
3047	0	36152	34117	32833	26070	32685	
3048	0	37752	35510	32903	20432	32263	
3049	0	37768	32581	32833	28030	31843	
3050	0	36434	28787	33122	39551	32220	
3051	0	34792	27815	32512	43570	32828	
3052	0	33632	29121	32407	43274	33651	
3053	0	32251	31538	32559	42548	33383	
3054	0	30878	34007	32167	39290	33159	
3055	0	29958	35969	32398	30973	33960	
3056	0	30236	35143	32744	21201	34155	
3057	0	31344	31458	33034	22467	33227	
3058	0	32176	27341	32923	24432	31709	
3059	0	32752	25764	32961	26415	31082	
3060	0	33792	26809	33035	29351	30329	
3061	0	34656	29463	32850	31058	33966	
3062	0	34728	34257	31308	34583	34816	
3063	0	35102	39592	31367	33014	33799	
3064	0	34687	43314	32685	38185	32961	
3065	0	34123	44551	33323	41478	32074	
3066	0	32944	41531	33238	36231	32033	
3067	0	31784	35074	33001	32193	33395	
3068	0	31470	28299	33287	32623	33918	
3069	0	31613	25385	33386	33235	33121	
3070	0	31782	28412	33232	34159	32722	
3071	0	31328	32109	33121	32636	32627	
3072	0	30086	33674	33069	27897	33983	
3073	0	28889	32789	32867	27996	34192	
3074	0	29018	31061	32162	30799	34632	
3075	0	29922	30400	31930	32987	32543	
3076	0	31901	30194	32104	35071	28558	
3077	0	34344	31431	31950	36987	30771	
3078	0	36239	33845	32365	34872	32602	
3079	0	37248	37307	32675	32699	32370	
3080	0	36486	41270	32583	30989	33432	
3081	0	35496	43556	32333	29289	32498	
3082	0	34692	42310	32004	21118	32448	
3083	0	33481	37575	32667	22128	33339	
3084	0	31844	31867	33094	31504	33692	
3085	0	30325	26948	33245	41808	33301	
3086	0	29634	24300	33107	44521	32537	
3087	0	29858	23366	33169	40832	33069	
3088	0	31165	23534	32939	37351	33582	
3089	0	33128	25522	33121	31496	33190	
3090	0	34880	27787	33010	31912	32951	
3091	0	35581	30834	32739	37961	32705	
3092	0	35130	34695	32871	40391	32948	
3093	0	33666	38481	32976	36128	32845	
3094	0	32382	40296	33076	28605	32775	
3095	0	31157	39352	33007	23398	32763	
3096	0	30516	36171	32853	27143	33106	
3097	0	31099	32250	32879	30275	33250	
3098	0	32401	28348	32870	34620	32344	
3099	0	33295	25603	32759	37133	31442	
3100	0	33864	24467	32846	34543	31431	
3101	0	33766	24297	32632	29042	32321	
3102	0	33592	25715	32762	29543	32494	
3103	0	33190	28335	32624	32327	33137	
3104	0	32851	31295	32646	33105	33243	
3105	0	32698	34390	32521	31741	33513	
3106	0	32240	37841	32714	30034	33552	
3107	0	32041	40826	32837	28110	33591	
3108	0	31948	41095	32885	29050	32770	
3109	0	31408	38957	33031	30569	33003	
3110	0	31420	36031	32829	31580	32955	
3111	0	31797	33565	32877	35328	32519	
3112	0	32079	32634	32583	38343	32403	
3113	0	32624	32337	32542	36342	32473	
3114	0	33528	34800	32485	34625	33791	
3115	0	33768	38517	32671	33108	33561	
3116	0	33437	42693	32769	31334	34286	
3117	0	32898	44187	32785	33017	35278	
3118	0	33026	40795	32723	30348	36598	
3119	0	33500	33536	32460	26221	35497	
3120	0	33477	25373	32577	27489	34446	
3121	0	33170	21189	32480	36546	32248	
3122	0	32745	21795	32664	41251	28671	
3123	0	32630	26599	32542	38496	25842	
3124	0	32182	32221	32730	34050	26739	
3125	0	31560	35103	32723	31536	29168	
3126	0	31751	33837	32805	33597	32544	
3127	0	32730	29983	32708	35162	33177	
3128	0	33325	27322	32872	38608	34158	
3129	0	33922	28590	32711	42503	36099	
3130	0	34552	32152	32735	39808	36743	
3131	0	34136	37209	32706	29941	35449	
3132	0	33004	41082	32816	21916	29542	
3133	0	31637	40001	32805	23239	25795	
3134	0	31273	34887	32605	27782	30006	
3135	0	30996	27704	32775	30407	32656	
3136	0	31344	23648	32741	32684	33729	
3137	0	32534	22407	33185	32995	34199	
3138	0	33735	24111	33190	33021	34298	
3139	0	34384	29332	33232	29518	34439	
3140	0	34328	33818	33013	26904	33751	
3141	0	33393	36228	32095	27178	33604	
3142	0	31696	38230	31846	33671	33380	
3143	0	30706	38081	32582	38500	33039	
3144	0	29848	38373	32993	40066	32923	
3145	0	29602	40699	33242	40826	34026	
3146	0	30616	44056	33314	35652	34190	
3147	0	32756	43636	33314	27631	33547	
3148	0	34587	39145	33141	26728	32863	
3149	0	36134	30330	32624	36524	32378	
3150	0	36412	20891	32007	38905	32731	
3151	0	36210	13997	31888	37074	32925	
3152	0	34720	12055	32390	34787	33060	
3153	0	33048	14599	33490	30627	33337	
3154	0	31502	20030	33731	29713	32409	
3155	0	31168	25324	33810	31608	32942	
3156	0	31992	32048	32597	33242	32016	
3157	0	34234	38184	30560	26890	31339	
3158	0	35814	43926	30293	26326	31657	
3159	0	35917	48553	31069	29936	33124	
3160	0	34800	52185	31424	35746	33120	
3161	0	33886	53528	31023	38931	32536	
3162	0	32173	51447	31779	39499	32891	
3163	0	30461	44646	32364	35757	33279	
3164	0	28563	34796	32672	31904	33805	
3165	0	28030	24726	33549	26719	32317	
3166	0	28641	16622	33652	23466	32312	
3167	0	29842	11410	33732	25807	32712	
3168	0	31484	12578	33808	33056	33032	
3169	0	33708	17605	33442	34961	32415	
3170	0	35240	23559	33585	28162	32282	
