# OpenSignals Text File Format
# {"00:07:80:3B:46:63": {"sensor": ["EMG", "EMG", "EMG", "EMG", "EMG"], "device name": "00:07:80:3B:46:63", "column": ["nSeq", "DI", "CH1", "CH2", "CH3", "CH4", "CH5"], "sync interval": 2, "time": "13:2:7.970", "comments": "", "device connection": "BTH00:07:80:3B:46:63", "channels": [1, 2, 3, 4, 5], "date": "2017-4-28", "mode": 0, "digital IO": [0, 1], "firmware version": 770, "device": "biosignalsplux", "position": 0, "sampling rate": 1000, "label": ["CH1", "CH2", "CH3", "CH4", "CH5"], "resolution": [16, 16, 16, 16, 16], "special": [{}, {}, {}, {}, {}]}}
# EndOfHeader
0	0	32833	32815	32686	32903	32947	
1	0	32773	32695	32831	32763	32911	
2	0	32819	32619	32711	32663	32903	
3	0	32768	32581	32797	32793	32913	
4	0	32865	32643	32616	32705	32902	
5	0	32812	32614	32617	32655	32872	
6	0	32789	32611	32711	32803	32813	
7	0	32775	32595	32765	32755	32833	
8	0	32742	32588	32655	32687	32829	
9	0	32756	32657	32629	32898	32767	
10	0	32816	32599	32726	32839	32803	
11	0	32733	32571	32805	32879	32846	
12	0	32764	32563	32530	32751	32919	
13	0	32793	32583	32681	32758	32871	
14	0	32815	32467	32626	32850	32723	
15	0	32851	32513	32654	32914	32775	
16	0	32851	32391	32688	32717	32839	
17	0	32821	32341	32653	32647	32735	
18	0	32766	32291	32583	32616	32726	
19	0	32763	32315	32739	32902	32795	
20	0	32757	32337	32667	33205	32727	
21	0	32770	32429	32761	32895	32797	
22	0	32753	32423	32755	32759	32775	
23	0	32677	32422	32697	32743	32842	
24	0	32626	32429	32937	32719	32839	
25	0	32680	32449	32919	32767	32727	
26	0	32676	32455	32973	32731	32698	
27	0	32805	32434	32927	32669	32805	
28	0	32825	32479	32678	32601	32743	
29	0	32724	32631	32751	32671	32885	
30	0	32848	32640	32687	32627	32863	
31	0	32770	32691	32653	32775	32912	
32	0	32805	32739	32614	32909	32928	
33	0	32860	32775	32402	33003	32943	
34	0	32907	32707	32479	32899	32884	
35	0	32824	32631	32471	32731	32975	
36	0	32832	32583	32533	32775	32945	
37	0	32836	32551	32415	32817	32999	
38	0	32816	32579	32647	32873	32967	
39	0	32801	32726	32625	32641	32935	
40	0	32722	32699	32721	32775	32839	
41	0	32736	32583	32583	32817	32817	
42	0	32771	32611	32676	32775	32863	
43	0	32765	32437	32755	32799	32903	
44	0	32636	32543	32775	32716	32845	
45	0	32626	32567	32865	32662	32757	
46	0	32743	32481	32663	32707	32741	
47	0	32855	32398	32595	32753	32666	
48	0	32857	32375	32770	32823	32751	
49	0	32800	32593	32703	32931	32735	
50	0	32775	32635	32698	32869	32721	
51	0	32809	32695	32850	32591	32733	
52	0	32866	32717	32687	32667	32751	
53	0	32873	32733	32679	32890	32695	
54	0	32832	32827	32807	32855	32690	
55	0	32815	32835	32743	32811	32747	
56	0	32819	32811	32775	32847	32703	
57	0	32794	32790	32745	32827	32653	
58	0	32752	32715	32663	32775	32654	
59	0	32730	32619	32820	32711	32718	
60	0	32784	32671	32803	32807	32753	
61	0	32850	32762	32799	32791	32679	
62	0	32833	32733	32775	32822	32825	
63	0	32857	32549	32587	32887	32881	
64	0	32774	32559	32640	32775	32851	
65	0	32753	32518	32895	32723	32673	
66	0	32813	32597	32850	32735	32699	
67	0	32767	32597	32755	32733	32861	
68	0	32789	32527	32913	32855	32922	
69	0	32824	32604	32873	32823	32985	
70	0	32725	32647	32852	32879	32875	
71	0	32640	32793	32818	32719	32737	
72	0	32742	32719	32813	32691	32765	
73	0	32740	32612	32839	32719	32753	
74	0	32767	32637	33047	32743	32755	
75	0	32764	32710	33202	32824	32747	
76	0	32713	32699	32981	32787	32743	
77	0	32784	32751	32717	32833	32793	
78	0	32750	32775	32575	32763	32827	
79	0	32813	32531	32735	32775	32885	
80	0	32755	32491	32510	32797	32939	
81	0	32772	32575	32171	32831	32954	
82	0	32768	32559	31877	32751	32899	
83	0	32775	32667	31541	32705	32891	
84	0	32774	32711	31233	32711	32744	
85	0	32711	32679	32095	32773	32735	
86	0	32809	32659	32869	32809	32695	
87	0	32832	32613	33266	32805	32690	
88	0	32837	32613	33639	32825	32729	
89	0	32824	32659	33999	32911	32833	
90	0	32775	32669	34048	32835	32958	
91	0	32813	32641	33573	32759	32993	
92	0	32824	32763	33380	32707	32842	
93	0	32837	32861	34425	32690	32699	
94	0	32838	32851	34843	32775	32720	
95	0	32772	32831	34013	32775	32738	
96	0	32730	32743	32675	32767	32813	
97	0	32813	32663	31504	32802	32967	
98	0	32760	32607	30407	32775	32955	
99	0	32785	32522	29945	32656	32973	
100	0	32784	32568	27986	32647	32933	
101	0	32760	32647	26631	32882	32738	
102	0	32720	32711	29042	32867	32770	
103	0	32775	32659	32071	32850	32979	
104	0	32812	32662	33682	32815	33014	
105	0	32793	32459	34130	32775	32902	
106	0	32731	32531	34042	32799	32835	
107	0	32762	32481	34007	32743	32806	
108	0	32795	32461	34289	32818	32671	
109	0	32720	32423	34221	32795	32717	
110	0	32652	32479	34006	32723	32789	
111	0	32669	32489	33823	32691	32758	
112	0	32752	32495	33749	32765	32697	
113	0	32887	32505	33335	32646	32655	
114	0	32875	32553	33431	32660	32707	
115	0	32827	32617	33379	32655	32647	
116	0	32821	32711	33328	32826	32640	
117	0	32805	32666	32999	32768	32690	
118	0	32860	32668	32515	32818	32659	
119	0	32784	32735	32567	32775	32711	
120	0	32686	32667	32743	32915	32694	
121	0	32799	32799	32685	33006	32813	
122	0	32706	32891	32675	32915	33020	
123	0	32736	32869	32742	32895	32947	
124	0	32824	32868	32675	32824	32977	
125	0	32898	32765	32879	32761	32875	
126	0	32930	32751	32827	32775	32887	
127	0	32972	32823	32716	32809	32731	
128	0	32936	32775	32701	32888	32677	
129	0	32857	32583	32638	32849	32717	
130	0	32812	32471	32575	32711	32753	
131	0	32799	32413	32627	32598	32775	
132	0	32680	32479	33117	32623	32717	
133	0	32593	32613	33182	32769	32717	
134	0	32519	32639	33239	32741	32635	
135	0	32568	32693	33221	33011	32658	
136	0	32640	32743	33062	32989	32846	
137	0	32672	32813	32711	32935	33005	
138	0	32666	32795	31902	32799	32898	
139	0	32793	32697	31885	32635	32819	
140	0	32824	32631	32699	32680	32727	
141	0	32813	32623	33349	32683	32725	
142	0	32845	32547	33722	32827	32700	
143	0	32815	32631	34303	32743	32743	
144	0	32774	32661	33963	32819	32711	
145	0	32756	32637	33127	32762	32939	
146	0	32751	32699	32967	32651	32961	
147	0	32775	32697	32638	32679	32899	
148	0	32844	32675	31747	32740	32845	
149	0	32853	32711	31357	32707	32946	
150	0	32839	32675	31936	32739	32891	
151	0	32775	32583	32131	32775	32923	
152	0	32713	32642	31651	32915	32903	
153	0	32825	32671	30913	33069	32963	
154	0	32774	32643	31083	32833	32975	
155	0	32766	32615	32804	32592	32927	
156	0	32708	32606	34226	32621	32911	
157	0	32690	32565	32945	32655	32891	
158	0	32688	32604	29883	32699	32847	
159	0	32707	32671	29831	33003	32831	
160	0	32713	32646	31643	33037	32894	
161	0	32650	32683	32594	32935	32855	
162	0	32719	32719	31123	32838	32894	
163	0	32736	32621	30959	32677	32873	
164	0	32689	32669	32387	32751	32865	
165	0	32675	32595	33418	32771	32919	
166	0	32704	32657	33711	32727	32935	
167	0	32742	32727	34327	32763	32913	
168	0	32835	32631	34723	32647	32743	
169	0	32850	32755	34867	32705	32720	
170	0	32918	32829	35751	32692	32723	
171	0	32937	32848	35691	32750	32735	
172	0	32989	32757	34551	32775	32751	
173	0	33050	32703	33559	32813	32859	
174	0	32956	32583	33211	32709	32889	
175	0	32805	32583	31192	32773	33001	
176	0	32747	32549	29509	32827	32958	
177	0	32698	32521	29019	32883	32955	
178	0	32704	32523	30743	32847	32928	
179	0	32769	32591	32611	32775	32939	
180	0	32785	32571	33323	32709	32950	
181	0	32786	32667	33755	32679	33028	
182	0	32736	32667	33425	32711	32923	
183	0	32755	32687	32983	32763	32927	
184	0	32734	32546	32991	32792	32941	
185	0	32775	32586	32746	32765	32941	
186	0	32784	32615	32863	32813	32937	
187	0	32765	32607	33904	32793	32995	
188	0	32756	32743	34461	32753	32943	
189	0	32730	32807	34063	32759	32907	
190	0	32728	32875	33249	32903	32879	
191	0	32700	32729	32489	32807	32883	
192	0	32712	32683	32542	32831	32891	
193	0	32766	32759	32237	32765	33029	
194	0	32880	32823	31931	32637	32978	
195	0	32877	32815	31599	32711	32927	
196	0	32784	32835	30828	32966	32854	
197	0	32809	32818	31215	33063	32815	
198	0	32830	32729	32259	32953	32879	
199	0	32804	32603	32886	32905	32699	
200	0	32817	32583	33191	32867	32711	
201	0	32751	32515	33107	32679	32831	
202	0	32711	32429	33427	32551	32873	
203	0	32702	32285	33603	32727	32939	
204	0	32774	32335	33643	32815	32975	
205	0	32759	32450	33642	32795	32927	
206	0	32808	32615	33611	32647	32953	
207	0	32841	32631	33144	32671	32934	
208	0	32762	32655	33167	32757	32747	
209	0	32736	32701	33095	32903	32775	
210	0	32790	32727	32985	32851	32694	
211	0	32829	32791	32221	32807	32722	
212	0	32775	32877	32331	32867	32711	
213	0	32822	32909	32017	32889	32674	
214	0	32763	32819	32071	32679	32693	
215	0	32702	32847	32573	32763	32743	
216	0	32715	32615	32733	32741	32711	
217	0	32669	32423	32518	32751	32852	
218	0	32749	32381	31775	32752	32903	
219	0	32835	32405	31799	32691	32899	
220	0	32762	32387	31981	32949	32967	
221	0	32918	32617	32015	32975	32967	
222	0	32910	32597	32503	32947	33003	
223	0	32820	32711	32941	32851	32975	
224	0	32848	32733	33088	32877	33010	
225	0	32836	32635	33190	32866	32992	
226	0	32870	32671	33011	32869	32967	
227	0	32851	32759	33059	32727	32914	
228	0	32850	32859	33047	32573	32767	
229	0	32837	32950	32981	32659	32672	
230	0	32866	32925	32942	32679	32632	
231	0	32772	32819	32715	32827	32631	
232	0	32762	32763	32925	32903	32749	
233	0	32751	32767	32843	32879	32720	
234	0	32745	32739	32807	32739	32775	
235	0	32765	32703	32923	32731	32775	
236	0	32758	32610	32775	32813	32711	
237	0	32737	32564	32762	32787	32775	
238	0	32747	32515	32879	32775	32745	
239	0	32864	32455	32775	32594	32758	
240	0	32915	32477	32717	32771	32789	
241	0	32736	32607	32603	32675	32882	
242	0	32711	32597	32543	32655	32858	
243	0	32740	32679	33011	32811	32915	
244	0	32728	32639	33095	32879	32919	
245	0	32686	32613	33007	32903	32967	
246	0	32730	32621	32902	32870	32967	
247	0	32813	32545	32663	32775	32930	
248	0	32704	32627	32399	32818	32911	
249	0	32694	32687	32169	32861	32900	
250	0	32770	32869	32131	32791	32895	
251	0	32745	32815	31957	32875	32891	
252	0	32749	32683	32031	32775	32883	
253	0	32704	32591	32379	32775	32807	
254	0	32772	32473	32639	32647	32743	
255	0	32824	32419	32645	32594	32687	
256	0	32774	32455	32839	32705	32726	
257	0	32706	32411	32805	32745	32751	
258	0	32733	32471	32884	32851	32765	
259	0	32741	32450	32742	32883	32743	
260	0	32844	32443	32763	32711	32685	
261	0	32770	32491	32956	32632	32839	
262	0	32874	32579	33357	32731	32799	
263	0	32837	32495	34290	32815	32839	
264	0	32924	32542	34559	32863	32772	
265	0	32923	32461	34399	32852	32875	
266	0	32867	32499	34419	32763	32975	
267	0	32750	32575	34375	32825	32933	
268	0	32732	32658	33779	32813	32931	
269	0	32732	32775	32123	32807	32965	
270	0	32726	32757	29856	32855	32912	
271	0	32730	32834	29295	32903	32839	
272	0	32728	32835	29807	32790	32887	
273	0	32728	32817	30621	32729	32977	
274	0	32753	32706	31027	32792	32837	
275	0	32724	32682	31067	32787	32696	
276	0	32737	32741	31254	32948	32871	
277	0	32748	32845	31902	32914	32845	
278	0	32765	32775	33147	32767	32903	
279	0	32722	32707	34055	32771	32967	
280	0	32869	32655	34547	32837	32963	
281	0	32893	32659	34931	32775	32884	
282	0	32920	32607	35099	32813	32885	
283	0	32937	32519	34496	32727	32770	
284	0	32863	32560	33493	32694	32717	
285	0	32855	32576	32845	32681	32725	
286	0	32809	32726	32775	32647	32701	
287	0	32744	32747	33789	32691	32761	
288	0	32698	32729	35559	32755	32869	
289	0	32775	32646	35959	32815	32911	
290	0	32785	32583	34104	32818	32970	
291	0	32766	32578	30610	32775	32973	
292	0	32749	32539	26482	32711	32898	
293	0	32873	32568	27433	32816	32773	
294	0	32992	32523	30439	32725	32731	
295	0	33014	32671	30171	32657	32674	
296	0	32842	32743	29223	32797	32839	
297	0	32864	32565	29591	32775	32916	
298	0	32947	32461	30987	32869	32763	
299	0	32909	32493	32639	32775	32803	
300	0	32890	32581	33536	32742	32707	
301	0	32896	32624	34023	32925	32682	
302	0	32799	32658	34803	32899	32703	
303	0	32729	32698	34816	32689	32641	
304	0	32705	32767	34779	32731	32717	
305	0	32627	32775	34503	32775	32726	
306	0	32686	32833	34007	32711	32763	
307	0	32692	32663	33950	32613	32698	
308	0	32661	32563	33978	32643	32725	
309	0	32632	32551	33815	32651	32791	
310	0	32683	32542	33791	32662	32934	
311	0	32738	32531	33507	32752	32931	
312	0	32709	32547	33155	33015	32935	
313	0	32711	32580	33198	33019	32959	
314	0	32690	32551	33062	32851	32765	
315	0	32791	32435	32934	32809	32669	
316	0	32791	32443	32835	32770	32747	
317	0	32794	32447	32619	32799	32717	
318	0	32667	32407	32711	32767	32759	
319	0	32730	32477	32655	32629	32765	
320	0	32819	32443	32645	32685	32705	
321	0	32834	32487	32438	32681	32647	
322	0	32667	32621	32571	32839	32707	
323	0	32679	32693	32407	32883	32671	
324	0	32696	32655	32487	32824	32722	
325	0	32723	32683	32495	32813	32759	
326	0	32792	32809	32367	32767	32775	
327	0	32824	32807	32614	32812	32711	
328	0	32816	32775	32619	32805	32739	
329	0	32765	32633	32624	32819	32774	
330	0	32790	32591	32696	32733	32703	
331	0	32791	32610	32522	32687	32775	
332	0	32832	32645	32615	32816	32961	
333	0	32792	32729	32696	32847	32948	
334	0	32824	32673	32630	32843	32890	
335	0	32747	32774	32635	32803	32791	
336	0	32752	32695	32623	32705	32741	
337	0	32770	32659	32839	32647	32731	
338	0	32749	32663	32717	32839	32671	
339	0	32775	32706	32655	32803	32671	
340	0	32801	32775	32639	32792	32679	
341	0	32767	32647	32467	32885	32701	
342	0	32678	32903	32689	32851	32725	
343	0	32704	32767	32711	32753	32807	
344	0	32850	32627	32727	32807	32941	
345	0	32839	32653	32599	32855	32902	
346	0	32872	32605	32293	32743	32730	
347	0	32855	32665	32214	32774	32719	
348	0	32861	32550	32495	32717	32773	
349	0	32824	32391	32711	32807	32743	
350	0	32837	32327	32871	32743	32775	
351	0	32804	32287	33211	32692	32913	
352	0	32844	32419	33855	32751	32991	
353	0	32724	32415	34253	32775	33031	
354	0	32711	32386	34719	32720	32987	
355	0	32711	32521	34779	32772	32931	
356	0	32753	32627	34625	32831	32871	
357	0	32767	32610	34063	32803	32921	
358	0	32775	32725	33585	32743	32907	
359	0	32708	32767	32203	32734	32855	
360	0	32696	32705	29775	32903	32935	
361	0	32805	32773	29202	32833	32954	
362	0	32722	32775	29950	32853	32922	
363	0	32701	32623	31711	32861	32789	
364	0	32775	32535	30690	32771	32835	
365	0	32788	32583	29363	32751	32836	
366	0	32728	32519	29545	32747	32803	
367	0	32688	32587	32109	32775	32730	
368	0	32635	32699	33523	32799	32873	
369	0	32673	32734	33268	32803	32997	
370	0	32884	32939	33523	32740	32959	
371	0	32861	32885	33119	32745	32967	
372	0	32805	32848	32587	32775	32922	
373	0	32834	32803	32155	32868	32834	
374	0	32829	32573	32667	32813	32809	
375	0	32736	32679	33397	32835	32839	
376	0	32792	32703	33586	32731	32909	
377	0	32771	32581	33922	32747	32891	
378	0	32806	32531	33959	32886	32891	
379	0	32826	32498	33879	32909	32902	
380	0	32804	32451	33875	32823	32933	
381	0	32865	32321	33551	32699	32903	
382	0	32902	32407	32961	32607	33003	
383	0	32893	32391	32685	32647	32987	
384	0	32948	32359	32935	32849	33031	
385	0	32870	32543	32638	32839	32857	
386	0	32865	32749	32119	32869	32851	
387	0	32798	32735	32774	32793	32875	
388	0	32793	32799	32816	32759	32877	
389	0	32708	32804	32178	32899	32933	
390	0	32720	32805	31430	32975	32869	
391	0	32775	32742	31874	32845	32914	
392	0	32816	32731	32745	32770	33013	
393	0	32790	32658	33081	32693	32859	
394	0	32738	32581	33222	32839	32687	
395	0	32611	32591	33383	32823	32685	
396	0	32662	32633	33193	32703	32775	
397	0	32680	32675	33217	32698	32809	
398	0	32738	32613	33202	32831	32839	
399	0	32746	32638	33019	32825	32719	
400	0	32707	32691	33083	32845	32725	
401	0	32739	32669	32728	32861	32688	
402	0	32881	32729	32697	32697	32679	
403	0	32832	32739	33095	32685	32722	
404	0	32837	32726	32993	32642	32736	
405	0	32918	32559	33095	32755	32742	
406	0	32877	32487	33031	32775	32773	
407	0	32790	32605	33037	32711	32847	
408	0	32734	32697	32946	32647	32819	
409	0	32745	32635	32839	32759	32879	
410	0	32734	32679	32041	32813	32861	
411	0	32744	32719	31167	32785	32946	
412	0	32825	32711	31911	32833	32983	
413	0	32795	32730	32215	32867	32967	
414	0	32825	32775	32407	32807	33013	
415	0	32832	32775	32575	32723	33007	
416	0	32841	32728	32647	32827	32976	
417	0	32816	32743	32903	32827	32759	
418	0	32757	32653	32923	32801	32726	
419	0	32720	32734	32965	32739	32701	
420	0	32762	32735	33243	32709	32735	
421	0	32698	32753	33698	32767	32739	
422	0	32741	32603	34107	32815	32683	
423	0	32711	32522	34143	32799	32699	
424	0	32704	32539	34051	32771	32690	
425	0	32733	32583	33479	32797	32775	
426	0	32676	32573	33230	32623	32859	
427	0	32632	32642	33007	32663	32704	
428	0	32753	32647	31469	32775	32696	
429	0	32736	32705	30834	32757	32799	
430	0	32718	32727	32194	32869	32964	
431	0	32846	32829	33005	32990	32886	
432	0	32994	32797	33705	32951	32815	
433	0	32954	32773	34083	32767	32711	
434	0	32828	32719	34643	32707	32803	
435	0	32762	32657	33431	32756	32857	
436	0	32880	32559	31875	32672	32983	
437	0	32886	32503	30910	33005	32933	
438	0	32966	32529	32504	32983	32902	
439	0	32908	32499	30611	32697	32737	
440	0	32857	32467	27357	32646	32765	
441	0	32680	32479	25799	32747	32765	
442	0	32698	32435	26918	32775	32978	
443	0	32749	32557	29050	32831	33041	
444	0	32758	32741	30541	32816	32941	
445	0	32792	32698	32819	32661	32877	
446	0	32804	32592	34875	32803	32800	
447	0	32720	32801	35679	32711	32775	
448	0	32710	32751	35538	32775	32734	
449	0	32709	32719	34759	32697	32711	
450	0	32722	32773	33717	32749	32708	
451	0	32824	32845	33681	32909	32761	
452	0	32775	32831	34311	32791	32825	
453	0	32741	32831	34338	32847	32767	
454	0	32750	32770	34243	32775	32719	
455	0	32751	32757	33822	32633	32751	
456	0	32775	32877	33847	32689	32703	
457	0	32742	32790	33927	32775	32667	
458	0	32748	32827	33954	32775	32762	
459	0	32747	32715	33879	32660	32744	
460	0	32835	32716	33879	32679	32731	
461	0	32774	32722	33477	32803	32666	
462	0	32667	32734	33139	32815	32647	
463	0	32718	32549	32996	32775	32704	
464	0	32747	32487	32775	32797	32694	
465	0	32775	32443	32395	32821	32748	
466	0	32676	32471	32103	32895	32767	
467	0	32646	32545	31463	32797	32689	
468	0	32640	32555	31439	32811	32717	
469	0	32669	32517	32114	32813	32731	
470	0	32764	32431	32596	32647	32723	
471	0	32932	32383	32895	32626	32869	
472	0	32877	32493	32745	32812	32915	
473	0	32896	32538	32532	32775	32967	
474	0	32871	32573	32675	32871	32867	
475	0	32827	32619	32610	32906	32853	
476	0	32829	32791	32561	32861	32775	
477	0	32874	32775	32739	32751	32739	
478	0	32820	32757	32666	32863	32695	
479	0	32801	32671	32757	32855	32719	
480	0	32816	32653	32946	32837	32694	
481	0	32825	32667	32765	32730	32695	
482	0	32762	32557	32775	32701	32761	
483	0	32832	32603	32534	32807	32879	
484	0	32800	32549	32374	32704	32703	
485	0	32729	32391	32629	32835	32691	
486	0	32768	32477	32665	32805	32791	
487	0	32720	32539	32747	32667	32723	
488	0	32764	32621	32753	32743	32903	
489	0	32764	32591	32479	32813	32995	
490	0	32785	32619	32747	32635	32930	
491	0	32741	32643	32884	32711	32827	
492	0	32760	32564	32751	32775	32697	
493	0	32756	32611	32943	32722	32719	
494	0	32717	32527	32855	32775	32903	
495	0	32804	32455	33412	32792	32943	
496	0	32800	32570	34215	32710	32849	
497	0	32753	32574	34566	32706	32747	
498	0	32736	32575	34527	32723	32821	
499	0	32711	32519	33927	32775	32947	
500	0	32718	32563	33241	32845	32967	
501	0	32775	32671	32154	32833	32961	
502	0	32853	32675	30742	32839	32952	
503	0	32843	32698	30259	32813	32915	
504	0	32802	32693	29869	32837	32870	
505	0	32636	32809	29011	32937	32739	
506	0	32674	32722	29366	32923	32743	
507	0	32713	32759	30983	32911	32923	
508	0	32741	32774	32520	32886	32887	
509	0	32836	32767	33745	32839	32674	
510	0	32827	32775	34259	32747	32711	
511	0	32804	32679	34498	32737	32751	
512	0	32904	32553	34571	32809	32898	
513	0	32853	32573	34073	32869	32951	
514	0	32787	32627	33863	32787	32927	
515	0	32678	32647	34049	32855	32847	
516	0	32713	32671	33485	32809	32719	
517	0	32634	32667	32837	32741	32721	
518	0	32744	32695	32955	32685	32707	
519	0	32716	32679	32715	32626	32720	
520	0	32672	32636	31575	32699	32763	
521	0	32568	32583	29933	32703	32695	
522	0	32582	32655	31175	32719	32763	
523	0	32677	32634	32967	32711	32741	
524	0	32710	32657	32541	32775	32771	
525	0	32764	32557	32191	32861	32859	
526	0	32931	32719	33446	32931	32903	
527	0	33017	32651	33389	33007	32868	
528	0	33132	32729	32853	32831	32825	
529	0	33092	32647	33627	32657	32831	
530	0	32956	32711	33211	32753	32708	
531	0	33117	32669	32649	32815	32705	
532	0	33000	32651	32553	32800	32697	
533	0	32878	32671	32159	32775	32739	
534	0	32837	32569	32519	32722	32729	
535	0	32818	32506	33122	32611	32711	
536	0	32738	32455	33910	32755	32775	
537	0	32772	32565	33923	32839	32879	
538	0	32690	32673	32763	32871	32962	
539	0	32705	32800	31047	32677	32940	
540	0	32667	32877	28775	32646	32955	
541	0	32668	32909	29163	32839	32902	
542	0	32738	32741	31095	32775	32801	
543	0	32775	32607	32828	32789	32709	
544	0	32774	32647	33783	32711	32903	
545	0	32763	32642	34071	32674	32811	
546	0	32667	32642	34559	32711	32827	
547	0	32630	32541	34759	32771	32838	
548	0	32735	32402	34797	32745	32775	
549	0	32704	32529	34752	32765	32717	
550	0	32691	32477	34086	32795	32707	
551	0	32724	32533	33923	32890	32711	
552	0	32736	32647	33519	32699	32775	
553	0	32807	32691	33135	32706	32839	
554	0	32832	32693	30879	32876	32792	
555	0	32812	32677	29783	32775	32775	
556	0	32786	32703	30505	32903	32694	
557	0	32786	32683	31621	32775	32717	
558	0	32750	32642	32801	32756	32748	
559	0	32717	32647	33223	32817	32707	
560	0	32707	32709	33235	32871	32774	
561	0	32651	32775	33362	32861	32721	
562	0	32770	32731	33211	32672	32745	
563	0	32807	32699	33104	32855	32773	
564	0	32807	32746	32873	32903	32717	
565	0	32797	32615	33055	32899	32673	
566	0	32721	32545	33117	32574	32663	
567	0	32722	32558	33175	32507	32713	
568	0	32708	32615	33110	32773	32717	
569	0	32735	32630	32753	32871	32722	
570	0	32764	32687	32789	32911	32775	
571	0	32763	32669	32737	32871	32871	
572	0	32651	32670	32738	32851	32770	
573	0	32672	32594	32548	32839	32734	
574	0	32652	32723	32381	32805	32823	
575	0	32666	32719	32109	32809	32903	
576	0	32720	32743	32311	32703	32926	
577	0	32700	32667	32517	32649	32937	
578	0	32746	32646	32687	32693	32886	
579	0	32736	32505	32975	32731	32967	
580	0	32821	32472	32894	32839	32997	
581	0	32849	32499	32765	32799	32903	
582	0	32857	32571	32463	32820	32813	
583	0	32896	32499	32387	32775	32775	
584	0	32944	32493	32461	32701	32775	
585	0	32957	32595	32662	32739	32829	
586	0	32805	32647	32790	32731	32775	
587	0	32815	32639	33531	32831	32719	
588	0	32753	32631	33620	32735	32703	
589	0	32662	32659	34131	32863	32731	
590	0	32713	32650	34651	32775	32717	
591	0	32710	32441	35367	32762	32711	
592	0	32696	32559	35335	32815	32736	
593	0	32741	32513	34631	32833	32861	
594	0	32775	32549	33251	32848	32921	
595	0	32894	32527	30721	32898	32886	
596	0	32934	32589	29515	32723	32899	
597	0	32903	32801	28277	32818	32951	
598	0	32856	32735	28267	32871	32908	
599	0	32775	32687	29050	32851	32865	
600	0	32802	32671	30023	32723	32871	
601	0	32704	32642	30749	32849	32978	
602	0	32572	32655	31109	32823	32919	
603	0	32436	32719	31079	32775	32880	
604	0	32594	32493	32517	32825	32749	
605	0	32713	32427	33513	32800	32749	
606	0	32816	32451	34652	32723	32739	
607	0	32853	32493	35266	32754	32727	
608	0	32827	32383	35231	32850	32955	
609	0	32738	32439	35224	32825	32846	
610	0	32667	32435	34263	32882	32923	
611	0	32629	32695	34225	32839	33022	
612	0	32647	32775	34275	32754	32967	
613	0	32645	32723	34439	32737	32948	
614	0	32774	32687	33843	32653	32899	
615	0	32896	32611	33282	32709	32923	
616	0	32988	32762	31604	32667	32793	
617	0	33051	32942	31906	32812	32735	
618	0	33002	32922	33999	32845	32729	
619	0	32962	32903	34331	32955	32719	
620	0	33071	32751	33351	32863	32775	
621	0	33234	32747	32053	32707	32941	
622	0	33232	32742	32263	32819	32962	
623	0	33180	32673	32865	32825	32938	
624	0	32942	32582	30903	32819	32928	
625	0	32775	32443	27282	33007	32823	
626	0	32720	32357	27481	32772	32775	
627	0	32644	32439	28734	32745	32755	
628	0	32532	32511	30515	32477	32728	
629	0	32498	32611	32666	32727	32670	
630	0	32581	32601	34334	32667	32791	
631	0	32636	32551	34736	32767	32751	
632	0	32674	32511	34594	32726	32927	
633	0	32698	32422	34183	32665	32955	
634	0	32710	32439	34119	32743	32967	
635	0	32764	32467	34213	32818	32959	
636	0	32741	32543	33887	33414	32937	
637	0	32755	32647	33696	33455	32819	
638	0	32787	32531	33619	32967	32899	
639	0	32758	32679	33415	32733	33015	
640	0	32787	32743	33373	32743	33055	
641	0	32813	32775	33307	32671	33031	
642	0	32813	32852	33131	32722	32919	
643	0	32910	32865	32722	32690	32670	
644	0	32910	32895	32437	32837	32775	
645	0	32929	32835	32447	32793	33076	
646	0	32966	32751	32379	32687	33146	
647	0	32972	32656	32263	32759	32914	
648	0	32932	32717	32319	32774	32851	
649	0	33002	32711	32641	32679	32711	
650	0	32970	32583	32805	32669	32694	
651	0	32827	32688	32921	32757	32655	
652	0	32913	32775	32893	32775	32803	
653	0	32902	32799	32537	32819	33223	
654	0	32932	32756	32685	32815	33190	
655	0	32922	32807	32684	32673	32775	
656	0	32829	32793	32793	32747	32729	
657	0	32824	32755	32623	32735	32735	
658	0	32760	32665	32659	32819	32589	
659	0	32662	32500	32687	32775	32495	
660	0	32581	32429	32807	32818	32743	
661	0	32507	32345	32825	32813	32911	
662	0	32489	32318	33021	32915	32903	
663	0	32398	32279	33351	32941	32747	
664	0	32396	32339	33110	32857	32719	
665	0	32443	32343	32985	32797	32743	
666	0	32349	32431	32711	32769	32729	
667	0	32325	32468	32337	32813	32722	
668	0	32462	32513	32447	32651	32902	
669	0	32464	32513	32295	32647	32768	
670	0	32397	32573	32199	32646	32851	
671	0	32521	32474	32413	32664	32899	
672	0	32514	32421	32941	32627	33015	
673	0	32536	32347	33104	32665	32985	
674	0	32611	32414	32859	32711	32917	
675	0	32725	32347	32301	32747	32967	
676	0	32752	32438	31254	32753	32867	
677	0	32753	32373	31065	32839	32837	
678	0	32756	32471	32159	32685	32887	
679	0	32816	32681	33177	32706	32757	
680	0	32925	32722	33577	32757	32775	
681	0	32962	32721	33895	32743	32763	
682	0	32976	32775	34247	32771	32793	
683	0	32962	32815	33711	32807	32887	
684	0	32879	32955	33377	32809	32935	
685	0	32969	32851	33139	32737	32977	
686	0	33027	32863	32511	32674	33005	
687	0	32992	32935	32288	32725	32926	
688	0	33009	32933	31878	32731	32887	
689	0	32936	32927	31437	32751	32770	
690	0	32975	32807	31051	32759	32671	
691	0	32922	32751	31062	32742	32775	
692	0	32941	32689	32281	32743	32667	
693	0	32868	32323	33287	32686	32656	
694	0	32755	32390	33849	32825	32859	
695	0	32660	32406	33991	32867	33032	
696	0	32696	32301	34055	32803	32991	
697	0	32797	32301	34227	32763	32809	
698	0	32749	32247	33857	32731	32812	
699	0	32658	32327	32621	32674	32763	
700	0	32623	32431	30727	32592	32729	
701	0	32725	32493	30518	32635	32751	
702	0	32672	32631	30383	32679	32821	
703	0	32775	32562	31783	32757	32918	
704	0	32861	32556	32499	32719	32851	
705	0	32851	32566	32279	32920	32706	
706	0	32891	32602	32325	32917	32723	
707	0	32791	32567	31936	32947	32755	
708	0	32775	32599	32767	32898	32727	
709	0	32786	32579	33729	32839	32711	
710	0	32772	32595	33981	32803	32655	
711	0	32963	32633	33795	32701	32719	
712	0	32947	32626	33182	32683	32681	
713	0	32774	32623	32658	32809	32743	
714	0	32792	32561	32689	32818	32802	
715	0	32692	32699	32835	32799	32860	
716	0	32704	32747	33615	32773	32943	
717	0	32708	32594	33883	32732	33022	
718	0	32684	32643	34029	32693	32997	
719	0	32691	32481	33791	32757	32899	
720	0	32726	32337	33259	32724	32921	
721	0	32784	32433	32685	32703	32915	
722	0	32928	32408	32127	32598	32910	
723	0	33056	32513	31489	32739	32941	
724	0	33056	32537	31569	32936	32773	
725	0	33139	32663	31995	32725	32711	
726	0	33033	32647	32073	32891	32768	
727	0	33078	32590	32107	33069	32898	
728	0	32971	32514	32455	32999	32909	
729	0	32891	32407	32493	32875	32891	
730	0	32717	32379	32662	32875	32791	
731	0	32662	32435	32696	32834	32723	
732	0	32506	32459	32800	32723	32847	
733	0	32399	32505	33339	32631	32927	
734	0	32377	32535	33669	32550	32895	
735	0	32343	32489	33721	32553	32947	
736	0	32502	32547	33586	32623	32887	
737	0	32709	32663	33206	32647	32755	
738	0	32903	32791	32855	32679	32845	
739	0	33000	32891	32631	32663	32921	
740	0	33131	32899	32599	32645	32963	
741	0	33051	32883	32249	32839	32974	
742	0	32812	32793	32255	32999	32877	
743	0	32646	32673	32722	32903	32809	
744	0	32535	32603	32461	32855	32667	
745	0	32583	32603	33152	32679	32699	
746	0	32684	32623	33781	32583	32768	
747	0	32804	32519	33641	32614	32987	
748	0	32937	32370	32606	32775	33049	
749	0	32920	32411	32179	32877	32895	
750	0	32880	32487	31231	32839	32955	
751	0	32860	32463	29730	32809	32905	
752	0	32803	32474	29730	32791	32947	
753	0	32676	32498	30471	32767	32885	
754	0	32677	32620	32059	32775	32824	
755	0	32704	32759	33374	32731	32730	
756	0	32797	32807	34099	32601	32663	
757	0	32846	32857	34279	32631	32654	
758	0	32839	32722	34135	32646	32767	
759	0	32696	32738	33902	32732	32823	
760	0	32773	32751	33415	32761	32966	
761	0	32872	32667	33403	32803	33019	
762	0	32976	32511	33069	32727	32987	
763	0	32868	32635	32599	32759	32795	
764	0	32685	32667	32377	32890	32667	
765	0	32610	32647	32365	32855	32789	
766	0	32632	32775	32594	32863	32789	
767	0	32746	32751	32579	32794	32731	
768	0	32771	32818	32642	32775	32697	
769	0	32725	32805	32335	32729	32717	
770	0	32815	32674	33275	32807	32698	
771	0	32903	32618	33247	32767	32667	
772	0	32902	32631	33235	32774	32721	
773	0	32848	32617	32535	32765	32903	
774	0	32688	32743	32337	32869	32861	
775	0	32690	32665	32161	32871	32743	
776	0	32647	32771	32283	32767	32691	
777	0	32775	32771	32263	32688	32726	
778	0	32766	32689	32595	32728	32829	
779	0	32793	32685	32991	32719	32991	
780	0	32711	32589	33263	32758	33001	
781	0	32728	32432	33127	32805	32931	
782	0	32686	32381	33241	32775	32895	
783	0	32647	32327	33283	32801	32873	
784	0	32814	32387	32919	32729	32789	
785	0	32681	32435	33081	32685	32729	
786	0	32744	32477	33155	32747	32807	
787	0	32817	32491	33389	32791	32683	
788	0	32891	32519	33683	32854	32737	
789	0	32853	32474	33679	32839	32751	
790	0	32803	32745	33415	33018	32890	
791	0	32818	32754	32127	32919	32935	
792	0	32929	32745	30477	32953	33043	
793	0	32928	32747	29961	32899	32926	
794	0	32839	32726	30436	32812	32887	
795	0	32812	32751	31314	32775	32931	
796	0	32732	32727	32162	32763	32911	
797	0	32616	32797	32822	32775	32849	
798	0	32517	32659	33627	32865	32767	
799	0	32583	32709	34615	32907	32793	
800	0	32676	32739	34759	32681	32899	
801	0	32770	32631	34199	32621	32959	
802	0	32937	32643	33857	32703	32961	
803	0	32978	32598	33573	32704	32735	
804	0	32960	32523	32833	32666	32775	
805	0	32816	32493	31769	32592	32735	
806	0	32617	32407	31192	32578	32916	
807	0	32808	32442	32208	32670	32954	
808	0	32994	32455	33811	32647	32797	
809	0	32942	32541	34941	33087	32804	
810	0	32924	32543	34159	33211	32772	
811	0	32873	32398	32741	33003	32886	
812	0	32749	32421	31139	32767	32831	
813	0	32894	32541	30253	32771	32772	
814	0	32882	32637	30789	32791	32899	
815	0	32662	32675	30507	32711	32945	
816	0	32551	32639	29215	32743	32863	
817	0	32515	32775	29393	32741	32703	
818	0	32646	32709	31301	32775	32789	
819	0	32800	32755	32455	32715	32659	
820	0	32768	32759	33195	32754	32674	
821	0	32891	32819	33571	32861	32741	
822	0	32839	32853	33871	32791	32889	
823	0	32896	32539	33987	32799	32957	
824	0	32905	32487	33607	32846	32763	
825	0	32748	32581	33007	32895	32763	
826	0	32685	32519	33415	32858	32711	
827	0	32816	32555	33943	32807	32723	
828	0	32787	32608	34352	32770	32711	
829	0	32697	32551	34143	32787	32732	
830	0	32688	32531	34073	32803	32735	
831	0	32729	32549	34023	32775	32666	
832	0	32746	32601	33836	32647	32723	
833	0	32853	32693	33206	32719	32720	
834	0	32848	32711	32226	32711	32663	
835	0	32845	32847	32115	32739	32709	
836	0	32834	32927	32283	32833	32775	
837	0	32904	32991	32568	32935	32875	
838	0	32809	32967	32704	32918	32927	
839	0	32787	32959	32723	32839	32943	
840	0	32816	32861	32711	32690	32975	
841	0	32865	32859	32603	32731	32889	
842	0	32931	32638	32429	32803	32953	
843	0	33014	32527	32275	32765	32941	
844	0	32974	32527	32223	32751	32975	
845	0	32864	32547	32412	32757	32911	
846	0	32706	32551	32675	32757	32913	
847	0	32655	32583	32925	32823	32903	
848	0	32650	32535	33079	32770	32871	
849	0	32647	32507	33095	32811	32735	
850	0	32661	32535	33062	32791	32702	
851	0	32696	32594	32985	32815	32681	
852	0	32718	32548	32895	32767	32898	
853	0	32928	32475	32800	32705	32935	
854	0	32960	32423	33110	32682	32863	
855	0	32702	32367	33461	32749	32711	
856	0	32655	32459	33471	32719	32731	
857	0	32621	32630	33517	32795	32747	
858	0	32466	32695	33655	32827	32719	
859	0	32488	32705	34027	32809	32858	
860	0	32724	32807	33901	32900	32883	
861	0	32813	32809	33062	33015	32895	
862	0	32713	32871	32751	32960	32989	
863	0	32785	32850	33507	32685	32933	
864	0	32799	32722	33430	32720	32943	
865	0	32733	32831	30843	32728	32946	
866	0	32708	32737	27799	32680	32975	
867	0	32656	32567	26911	32771	32895	
868	0	32664	32619	29082	32685	32898	
869	0	32687	32512	30363	32799	32867	
870	0	32687	32495	30035	32809	32767	
871	0	32834	32431	29797	32760	32711	
872	0	32804	32419	31866	32853	32839	
873	0	32697	32493	33991	32825	32871	
874	0	32696	32451	34759	32747	32953	
875	0	32879	32449	34799	32683	32939	
876	0	32869	32599	34509	32691	32733	
877	0	32905	32658	34210	32702	32711	
878	0	33009	32741	33986	32802	32768	
879	0	32948	32691	34247	32943	32921	
880	0	32838	32651	34933	32824	32905	
881	0	32704	32673	35418	32733	32855	
882	0	32565	32711	35538	32735	32846	
883	0	32722	32679	34684	32751	32775	
884	0	32694	32815	33627	32915	32786	
885	0	32748	32963	33074	32911	32673	
886	0	32775	32775	33511	32850	32673	
887	0	32802	32711	34141	32775	32720	
888	0	32624	32681	33886	32735	32747	
889	0	32656	32487	32635	32797	32677	
890	0	32685	32521	31897	32727	32683	
891	0	32607	32486	32275	32703	32723	
892	0	32647	32575	30818	32839	32820	
893	0	32683	32644	28279	32887	32717	
894	0	32742	32677	28589	32883	32723	
895	0	32757	32743	27959	32911	32709	
896	0	32832	32675	28415	32927	32839	
897	0	32884	32703	29383	32791	32911	
898	0	32867	32743	30554	32689	32942	
899	0	32909	32775	32685	32722	32954	
900	0	33021	32756	33319	32846	32705	
901	0	33091	32800	33973	32871	32679	
902	0	33152	32797	34679	32855	32728	
903	0	33065	32745	34775	32950	32851	
904	0	32873	32639	34187	32896	32935	
905	0	32667	32759	34103	32857	32975	
906	0	32759	32753	34595	32854	32882	
907	0	32704	32631	34533	32731	32825	
908	0	32376	32591	34534	32675	32731	
909	0	32179	32471	34603	32707	32753	
910	0	32252	32493	33995	32646	32839	
911	0	32560	32511	33637	32675	32918	
912	0	32722	32541	33503	32643	32927	
913	0	33065	32729	33184	32583	32922	
914	0	33261	32807	32999	32603	32967	
915	0	33391	32594	32627	32642	32935	
916	0	33300	32521	32483	32903	32878	
917	0	33052	32679	33001	32899	32869	
918	0	32760	32639	33833	32759	32711	
919	0	32700	32603	34644	32615	32865	
920	0	32738	32837	34899	32615	32936	
921	0	32775	32787	33927	32921	32831	
922	0	32669	32655	31434	32999	32723	
923	0	32614	32548	29912	32882	32758	
924	0	32532	32546	28205	32809	32933	
925	0	32552	32520	29173	32807	32967	
926	0	32592	32527	30643	32711	32838	
927	0	32728	32583	32221	32819	32711	
928	0	32954	32685	33399	32801	32619	
929	0	33097	32711	33453	32903	32677	
930	0	32933	32861	33015	32885	32629	
931	0	32718	32847	32538	32867	32747	
932	0	32722	32871	32567	32793	32851	
933	0	32744	32871	32863	32711	32925	
934	0	32647	32813	33643	32693	32893	
935	0	32457	32775	34001	32699	32756	
936	0	32672	32795	34093	32711	32717	
937	0	32728	32671	34555	32645	32926	
938	0	32715	32323	34503	32626	32987	
939	0	32738	32419	33789	32763	33023	
940	0	32644	32598	32813	32863	32884	
941	0	32632	32647	31463	32887	32871	
942	0	32726	32727	30788	32902	32881	
943	0	32735	32847	31143	32845	32923	
944	0	32887	32943	30996	32769	32951	
945	0	32821	32695	30446	32759	32935	
946	0	32903	32621	31295	32801	32939	
947	0	33131	32631	32023	32677	33005	
948	0	33197	32687	32853	32679	32963	
949	0	33242	32599	33403	32711	32937	
950	0	33287	32466	33714	32743	33005	
951	0	33163	32447	33668	32911	32966	
952	0	32808	32573	33414	33206	32935	
953	0	32654	32644	33250	33051	32933	
954	0	32564	32636	33183	32939	32967	
955	0	32452	32671	33191	32775	32951	
956	0	32391	32450	33053	32729	32790	
957	0	32312	32335	33229	32733	32805	
958	0	32315	32423	33368	32727	32775	
959	0	32260	32489	33363	32702	32706	
960	0	32300	32707	33927	32749	32767	
961	0	32366	32802	34535	32799	32775	
962	0	32440	32802	35586	32827	32736	
963	0	32711	32765	35911	32683	32736	
964	0	33000	32850	35499	32623	32730	
965	0	33114	32877	33906	32739	32965	
966	0	33346	32891	32755	32839	32978	
967	0	33477	32825	32320	32839	32890	
968	0	33208	32839	31052	32851	32875	
969	0	32674	32775	28964	32807	32833	
970	0	32183	32557	28930	32698	32751	
971	0	32084	32573	29485	32647	32706	
972	0	32239	32605	27775	32701	32663	
973	0	32462	32583	28253	32671	32711	
974	0	32827	32483	29215	32706	32691	
975	0	32928	32451	30943	32717	32694	
976	0	33240	32549	32487	32677	32718	
977	0	33282	32531	32687	32699	32863	
978	0	33245	32583	31931	32831	32757	
979	0	33029	32659	32493	32743	32698	
980	0	32678	32663	33779	32701	32755	
981	0	32315	32487	33443	32723	32831	
982	0	32246	32426	32887	32733	32871	
983	0	32254	32583	33975	32688	32821	
984	0	32320	32747	34475	32711	32755	
985	0	32614	32791	34518	32826	32703	
986	0	33162	32771	34793	32759	32861	
987	0	33272	32663	34475	32838	32767	
988	0	32998	32743	34611	32807	32839	
989	0	32749	32739	35143	32773	32883	
990	0	32861	32717	34525	32839	32765	
991	0	33208	32723	34311	32749	32749	
992	0	33644	32555	35037	32749	32764	
993	0	33741	32628	34349	32749	32731	
994	0	33080	32656	33059	32789	32711	
995	0	32273	32785	30897	32903	32705	
996	0	31736	32735	28160	32850	32693	
997	0	31714	32728	27623	32981	32843	
998	0	31984	32705	28021	32974	32923	
999	0	32761	32699	30215	32929	32959	
1000	0	33637	32719	32491	32801	32891	
1001	0	34333	32817	33831	32833	32867	
1002	0	34504	32775	34338	32703	32807	
1003	0	34281	32723	34082	32664	32759	
1004	0	33896	32731	33819	32761	32911	
1005	0	33437	32613	34085	32667	32935	
1006	0	32799	32583	35262	32775	32943	
1007	0	32354	32327	35655	32827	32751	
1008	0	32045	32349	35411	32720	32687	
1009	0	31943	32475	35229	32665	32711	
1010	0	31898	32521	35127	32829	32914	
1011	0	31957	32533	35407	32927	32973	
1012	0	32042	32615	34655	32888	32987	
1013	0	32081	32513	33710	32967	32987	
1014	0	32178	32603	33415	32819	32991	
1015	0	32324	32471	33223	32711	32955	
1016	0	32805	32402	30931	32655	32983	
1017	0	33191	32404	26277	32662	32941	
1018	0	33223	32463	24905	32647	32913	
1019	0	32967	32407	26233	32765	32895	
1020	0	32753	32369	28599	32847	32690	
1021	0	32587	32427	31077	32835	32868	
1022	0	32474	32371	33254	32775	32891	
1023	0	32121	32370	33178	32711	32952	
1024	0	31923	32466	33335	32663	32914	
1025	0	32091	32542	34075	32707	32939	
1026	0	32016	32682	34311	32751	33019	
1027	0	32050	32803	33843	32717	32974	
1028	0	32238	32759	33714	32684	32963	
1029	0	32690	32631	33526	32763	32755	
1030	0	33142	32687	33347	32849	32763	
1031	0	33660	32735	33554	32851	32855	
1032	0	34087	32738	34047	32875	32899	
1033	0	34112	32857	34422	32835	32903	
1034	0	34113	32928	35685	32775	32917	
1035	0	33864	32875	36007	32679	33039	
1036	0	33306	32815	34649	32643	32975	
1037	0	32674	32741	33538	32679	32967	
1038	0	32380	32801	33207	32647	32967	
1039	0	32080	32835	32631	32821	32910	
1040	0	31764	32775	32979	33079	32898	
1041	0	31302	32737	31947	32839	32671	
1042	0	30962	32504	28919	32890	32752	
1043	0	30611	32381	29028	32946	32871	
1044	0	30449	32357	30615	33023	32964	
1045	0	30987	32505	30699	32904	32839	
1046	0	31714	32743	32053	32787	32636	
1047	0	32694	32671	33591	32710	32845	
1048	0	33286	32523	33516	32722	32997	
1049	0	33607	32635	32811	32718	32927	
1050	0	33481	32775	34301	32671	32795	
1051	0	33516	32859	35187	32651	32667	
1052	0	34070	32919	34768	32615	32691	
1053	0	34872	32753	33174	32735	32701	
1054	0	35588	32440	30829	32913	32784	
1055	0	36553	32516	28454	33031	32902	
1056	0	36686	32615	30477	32954	32967	
1057	0	35040	32679	32703	32893	32865	
1058	0	32457	32595	32805	32883	32699	
1059	0	30274	32553	33753	32775	32690	
1060	0	28856	32491	33065	32726	32799	
1061	0	28303	32527	32715	32701	32808	
1062	0	28938	32511	32070	32744	32870	
1063	0	30641	32357	32327	33009	32811	
1064	0	32224	32411	32540	33083	32817	
1065	0	34086	32455	32071	32903	32923	
1066	0	35232	32605	30978	32731	32923	
1067	0	36100	32765	31221	32605	32915	
1068	0	36960	32842	34234	32705	32906	
1069	0	36594	32725	35443	33120	32911	
1070	0	34916	32549	34406	33027	32920	
1071	0	33761	32502	34469	32726	32869	
1072	0	32810	32647	34542	32694	32913	
1073	0	31862	32672	34247	32692	32917	
1074	0	31612	32871	31535	32733	32997	
1075	0	31264	32967	31843	32647	32944	
1076	0	31561	32925	34003	32757	32891	
1077	0	32223	32888	30999	32818	32763	
1078	0	32847	32847	30912	32887	32755	
1079	0	32936	32931	32545	32839	32775	
1080	0	32842	32771	32644	32687	32767	
1081	0	32387	32747	31638	32422	32685	
1082	0	31616	32652	31254	32442	32758	
1083	0	31204	32515	33036	32672	32909	
1084	0	31248	32497	36009	32663	32985	
1085	0	31039	32522	37542	32571	32958	
1086	0	30437	32529	34870	32602	32977	
1087	0	30032	32603	31407	32758	32950	
1088	0	30349	32754	28986	33077	32934	
1089	0	31874	32755	26194	33138	32741	
1090	0	34311	32680	23015	33314	32715	
1091	0	36168	32698	24621	33275	32859	
1092	0	36584	32487	28488	32941	32967	
1093	0	36202	32443	33123	32755	32909	
1094	0	34805	32313	36475	32678	32953	
1095	0	33153	32433	37265	32690	32831	
1096	0	31640	32475	36987	32677	32801	
1097	0	31250	32698	36255	32683	32891	
1098	0	32368	32877	35431	32643	32965	
1099	0	34043	32867	33797	32805	32944	
1100	0	35075	32797	33331	32807	32888	
1101	0	35304	32647	33991	32850	32743	
1102	0	34857	32543	34627	32887	32813	
1103	0	34148	32455	34583	32919	32899	
1104	0	33123	32352	34555	32971	32903	
1105	0	32634	32402	34525	33053	32751	
1106	0	31930	32571	34559	32967	32685	
1107	0	31239	32679	34808	32577	32936	
1108	0	30679	32775	34463	32427	32987	
1109	0	30410	32790	34050	32256	32929	
1110	0	30153	32634	33827	32327	32679	
1111	0	29997	32673	34000	32694	32677	
1112	0	30109	32567	34286	33042	32790	
1113	0	30179	32559	34911	32955	32978	
1114	0	30246	32687	34153	33058	32879	
1115	0	30688	32589	35483	33071	32855	
1116	0	31374	32307	36586	33000	32742	
1117	0	32397	32198	33690	32957	32734	
1118	0	33762	32371	28490	32903	32829	
1119	0	34863	32678	25490	32726	32941	
1120	0	34546	32912	24653	32626	32936	
1121	0	34040	33170	26485	32528	32787	
1122	0	33663	33063	30325	32614	32663	
1123	0	33988	32997	32237	32661	32675	
1124	0	34088	33059	32805	32719	32925	
1125	0	34130	32947	33306	32690	32982	
1126	0	34335	32755	33239	32773	32941	
1127	0	34793	32707	32474	32765	32915	
1128	0	34810	32635	33183	32882	32966	
1129	0	34190	32510	33299	33040	32967	
1130	0	33136	32337	31529	33159	32871	
1131	0	32180	32254	31392	32903	32935	
1132	0	31966	32301	32505	32775	32918	
1133	0	31702	32421	33773	32647	32918	
1134	0	30893	32491	35059	32674	32903	
1135	0	30324	32632	36704	32685	32898	
1136	0	29849	32827	37132	32686	32903	
1137	0	29867	33057	34533	32873	32916	
1138	0	30302	32790	31925	32978	32903	
1139	0	31565	32600	27220	33001	32902	
1140	0	33035	32647	23743	33061	32845	
1141	0	33775	32675	25286	32775	32869	
1142	0	35305	32750	29499	32672	32903	
1143	0	36778	32895	32956	32594	32979	
1144	0	37469	32850	31679	32674	32963	
1145	0	37556	32819	30262	32695	32909	
1146	0	36440	32811	30791	32687	32957	
1147	0	35019	32659	33189	32787	32939	
1148	0	32996	32578	35959	33004	32943	
1149	0	31410	32495	37724	33146	32967	
1150	0	30948	32551	37246	33030	32961	
1151	0	31257	32679	35826	33157	32955	
1152	0	31702	32731	34639	33083	32879	
1153	0	32910	32720	33447	32923	32889	
1154	0	34520	32763	33488	32711	32974	
1155	0	34302	32677	33829	32566	32955	
1156	0	33213	32685	34310	32570	32962	
1157	0	32135	32653	35517	32579	32919	
1158	0	31261	32743	36962	32453	32955	
1159	0	30282	32959	38215	32405	32805	
1160	0	29232	33151	38038	32477	32893	
1161	0	28352	33074	37099	32656	32965	
1162	0	28763	32898	34006	32713	32953	
1163	0	30278	32903	31524	32577	32873	
1164	0	31829	32839	30158	32473	32857	
1165	0	33216	32497	30547	32583	32699	
1166	0	33572	31983	30866	32611	32669	
1167	0	32873	31721	28466	32831	32719	
1168	0	31632	31535	28799	33197	32687	
1169	0	30691	31490	29703	33154	32825	
1170	0	30857	31687	27224	33065	32891	
1171	0	33086	32253	29379	32982	32928	
1172	0	35832	32841	34442	32913	32985	
1173	0	37400	33314	36203	32903	32972	
1174	0	37296	33527	34311	32710	32975	
1175	0	36553	33659	31799	32679	32955	
1176	0	35183	33527	28962	32677	32920	
1177	0	33504	33311	27723	32758	32853	
1178	0	32553	32911	29629	32742	32863	
1179	0	31887	32671	31331	32809	32939	
1180	0	31378	32647	33726	32837	32958	
1181	0	31462	32621	36790	32643	32919	
1182	0	31840	32617	34704	32679	32920	
1183	0	31851	32815	32461	32750	32883	
1184	0	32199	33015	31737	32727	32830	
1185	0	32572	33126	34086	33219	32706	
1186	0	32788	33170	37447	33357	32732	
1187	0	33281	33067	37301	32965	32899	
1188	0	34542	33042	33186	32825	32983	
1189	0	34994	32728	27362	32928	32906	
1190	0	34419	32441	27181	32930	32853	
1191	0	32869	32154	31051	32911	32753	
1192	0	31443	31831	32727	32833	32675	
1193	0	29940	31495	32983	32816	32750	
1194	0	29072	31457	35330	32749	32729	
1195	0	29968	31727	38506	32607	32808	
1196	0	32617	31981	40768	32526	32663	
1197	0	34279	32199	38407	32637	32709	
1198	0	34288	32239	33515	32647	32797	
1199	0	34896	32189	29818	32765	32752	
1200	0	34976	32315	32135	32853	32696	
1201	0	34452	32365	35303	32795	32726	
1202	0	33206	32484	33257	32903	32709	
1203	0	32199	32736	31953	33223	32706	
1204	0	31600	32967	34051	33129	32790	
1205	0	30486	33143	33983	32895	32976	
1206	0	29618	33155	35710	32545	32959	
1207	0	30134	33051	37688	32367	32797	
1208	0	31797	32655	36119	32613	32711	
1209	0	32992	32488	30154	32919	32733	
1210	0	33227	32531	25963	32802	32832	
1211	0	34000	32627	20871	32751	32820	
1212	0	35106	32664	23186	32711	32710	
1213	0	35832	32865	25503	32765	32711	
1214	0	35944	33095	28007	32793	32687	
1215	0	35847	33106	30903	32803	32819	
1216	0	34184	33074	27721	32815	32879	
1217	0	32944	32837	26745	32791	32972	
1218	0	32153	32891	30139	32775	32962	
1219	0	31869	32751	33007	32791	32820	
1220	0	31265	32775	36871	32775	32733	
1221	0	30840	32477	42348	32720	32975	
1222	0	30668	32255	44338	32635	32959	
1223	0	31058	32179	43667	32551	32999	
1224	0	30842	32245	38124	32479	32939	
1225	0	30885	32432	26816	32715	32861	
1226	0	31102	32571	23678	32918	32728	
1227	0	32186	32754	32795	32970	32701	
1228	0	34228	32847	40377	32985	32677	
1229	0	36177	32882	41183	32958	32679	
1230	0	37200	33166	34939	32774	32723	
1231	0	36756	33185	30300	32763	32818	
1232	0	34652	33051	26055	33250	33015	
1233	0	32317	33026	25917	33327	32875	
1234	0	30838	32987	26377	33007	32751	
1235	0	30599	32876	28569	32844	32733	
1236	0	31318	32655	32495	32690	32677	
1237	0	32312	32319	33723	32598	32766	
1238	0	33546	32165	35207	32711	32819	
1239	0	34682	32215	34731	32863	32711	
1240	0	35565	32165	33990	32974	32728	
1241	0	35384	31997	32357	33055	32755	
1242	0	34445	31970	31400	33159	32803	
1243	0	33653	32149	31751	32939	32683	
1244	0	32756	32097	33170	32691	32747	
1245	0	32064	32455	35475	32545	32881	
1246	0	30659	32882	35554	32532	32955	
1247	0	29303	33159	34064	32505	33017	
1248	0	28490	33272	32579	32485	32965	
1249	0	27660	33575	30982	32827	32729	
1250	0	27255	33715	32288	33119	32718	
1251	0	27738	33799	35288	32855	32723	
1252	0	28845	33847	36969	32697	32685	
1253	0	30959	33287	37511	32678	32742	
1254	0	33720	32896	36474	32749	32919	
1255	0	36678	32518	36871	32687	32991	
1256	0	38196	32006	36133	32527	32707	
1257	0	37058	31588	34036	32620	32911	
1258	0	35299	31107	32940	32793	32972	
1259	0	33831	31215	34941	32667	32958	
1260	0	33043	31460	37267	32879	32792	
1261	0	32862	31743	38023	32960	32739	
1262	0	33145	32114	36331	32670	32757	
1263	0	32774	32440	32902	32743	32831	
1264	0	31661	32544	26807	32877	32934	
1265	0	31021	32680	21843	32630	32988	
1266	0	31148	32639	20679	32438	32767	
1267	0	32195	32517	25759	32535	32719	
1268	0	33399	32713	29063	32559	32665	
1269	0	33536	32647	32357	32671	32656	
1270	0	33587	32711	33175	32670	32691	
1271	0	33936	32827	33310	32681	32749	
1272	0	33867	33188	30041	32614	32711	
1273	0	35000	33255	28007	32599	32715	
1274	0	36296	33321	25705	32661	32726	
1275	0	36434	33415	24616	32725	32710	
1276	0	34823	33406	28125	32728	32658	
1277	0	32602	33272	38672	32744	32692	
1278	0	30864	33223	41131	32775	32743	
1279	0	30330	32943	36486	32739	32719	
1280	0	30914	32702	32161	32711	32823	
1281	0	32276	32696	31087	32645	32752	
1282	0	33145	32717	31933	32767	32735	
1283	0	33601	32595	33001	32819	32787	
1284	0	33375	32501	33647	32854	32775	
1285	0	33440	32390	34491	32807	32739	
1286	0	33530	31950	35435	32772	32731	
1287	0	34021	31687	35907	32711	32699	
1288	0	34164	31587	36543	32744	32719	
1289	0	33814	31653	36743	32978	32673	
1290	0	32690	31826	36563	33084	32699	
1291	0	30978	32030	36777	33015	32760	
1292	0	30709	32557	38167	32991	32699	
1293	0	31751	32917	38599	32858	32754	
1294	0	32698	33218	36311	32764	32687	
1295	0	33122	33223	35967	32759	32711	
1296	0	32962	33222	34159	32686	32711	
1297	0	32445	33191	30898	32647	32737	
1298	0	31510	33286	29465	32653	32854	
1299	0	30290	33241	31849	32663	32898	
1300	0	29819	33235	37099	32680	32924	
1301	0	29691	33415	39263	32665	32967	
1302	0	29674	33523	37446	32671	32902	
1303	0	30000	33490	28591	32812	32919	
1304	0	30853	33316	21203	32881	32684	
1305	0	32198	33060	17564	32922	32854	
1306	0	33434	32611	24060	32932	32869	
1307	0	34823	32186	28141	32967	32738	
1308	0	35236	31825	29511	32896	32813	
1309	0	34208	31540	28203	32807	32903	
1310	0	33270	31449	29959	32821	32940	
1311	0	32645	31728	36503	32818	32951	
1312	0	32146	31890	40250	32903	32899	
1313	0	32601	32021	38816	32921	32885	
1314	0	33504	32182	33675	32815	32957	
1315	0	33786	32516	24921	32757	32991	
1316	0	33688	32899	24896	32647	32873	
1317	0	33380	32963	28430	32617	32775	
1318	0	32998	32963	29961	32587	32737	
1319	0	33202	33007	36610	32620	32665	
1320	0	33296	32775	46200	32594	32684	
1321	0	33133	32550	49527	32627	32835	
1322	0	33052	32397	44143	32915	32927	
1323	0	33370	32342	34166	33221	32944	
1324	0	34352	32400	22651	33469	32964	
1325	0	35167	32563	23418	33211	33014	
1326	0	35050	32727	24973	33037	32884	
1327	0	34434	32908	25779	32837	32691	
1328	0	33931	33143	28942	32606	32899	
1329	0	33342	33095	34480	32517	32954	
1330	0	32771	32956	36494	32435	32839	
1331	0	31896	32657	39425	32421	32757	
1332	0	30838	32542	40562	32417	32759	
1333	0	30356	32423	36451	32566	32681	
1334	0	31012	32486	33328	32785	32728	
1335	0	31900	32524	28035	32902	32774	
1336	0	32695	32593	28085	32887	32770	
1337	0	33430	32691	29734	32916	32939	
1338	0	33726	32572	26462	32996	32931	
1339	0	34117	32629	21918	33048	32726	
1340	0	32934	32555	24553	32903	32884	
1341	0	32123	32562	30357	32775	32935	
1342	0	31804	32651	35741	32775	32911	
1343	0	31627	32865	40891	32876	32886	
1344	0	31050	32952	43751	32737	32879	
1345	0	30720	32775	42303	32687	32919	
1346	0	30489	32877	40792	32711	32859	
1347	0	31312	32926	39319	32770	32763	
1348	0	32614	32897	34375	32801	32842	
1349	0	33915	32909	34805	32802	32837	
1350	0	34544	32735	34707	32827	32975	
1351	0	33673	32589	37381	32725	32979	
1352	0	32960	32812	39212	32722	33017	
1353	0	32309	32708	39878	32769	32997	
1354	0	30528	32698	34404	33101	32909	
1355	0	28300	32762	19083	32968	32866	
1356	0	27534	32835	8358	32704	32899	
1357	0	29740	32854	20404	32705	32941	
1358	0	33060	33028	31659	32701	32916	
1359	0	37043	33056	35319	32701	32965	
1360	0	39062	32948	36894	32527	32775	
1361	0	38523	32907	33723	32657	32716	
1362	0	37256	32903	26554	32710	32681	
1363	0	35304	32651	23414	32755	32775	
1364	0	34706	32599	23533	33179	32711	
1365	0	35856	32420	28117	33404	32729	
1366	0	37580	31604	32770	33115	32722	
1367	0	38508	31123	37063	32967	32696	
1368	0	37500	30912	40583	32824	32686	
1369	0	34643	30943	43963	32731	32704	
1370	0	31820	31335	41976	32787	32674	
1371	0	30397	32171	39007	32750	32630	
1372	0	29896	32863	41007	32743	32692	
1373	0	29501	33379	40186	32701	32695	
1374	0	28818	33767	35930	32655	32685	
1375	0	28400	33683	31862	32775	32717	
1376	0	28094	33628	31175	32775	32723	
1377	0	28274	33479	34013	32915	32891	
1378	0	28146	33428	39395	32818	32996	
1379	0	28034	33475	43120	32667	32918	
1380	0	28679	33274	37831	32442	32871	
1381	0	29418	33086	29650	32400	32775	
1382	0	30762	32813	18845	32454	32757	
1383	0	31396	32639	14348	32379	32818	
1384	0	32440	32502	14463	32447	32717	
1385	0	34158	32415	19347	32751	32733	
1386	0	37445	32144	22180	33025	32723	
1387	0	40024	32151	22414	33337	32683	
1388	0	40588	32099	22023	33207	32750	
1389	0	39354	31926	28515	32525	32971	
1390	0	36816	31926	36713	32655	32960	
1391	0	34183	32072	41581	32843	32962	
1392	0	32541	32229	44839	32949	32940	
1393	0	31751	32391	44951	32966	32935	
1394	0	30208	32467	40967	32895	32967	
1395	0	29266	32583	36887	32775	32984	
1396	0	30116	32103	34259	32722	32997	
1397	0	30662	31889	34417	32679	32875	
1398	0	31000	31989	32994	32759	32903	
1399	0	31434	32421	32195	32524	32955	
1400	0	31882	32785	33519	32367	32884	
1401	0	32496	33143	35769	32417	32884	
1402	0	32908	33136	40289	32600	32933	
1403	0	33725	32906	44375	32530	32985	
1404	0	34232	32939	41069	32540	32879	
1405	0	33258	33000	36595	32711	32902	
1406	0	31860	33153	32742	32727	32861	
1407	0	31631	33197	26882	32672	32863	
1408	0	32775	33189	23002	32652	32748	
1409	0	34404	33287	23415	32741	32775	
1410	0	36408	33313	25907	32821	32751	
1411	0	36973	33177	29827	32917	32726	
1412	0	35943	32977	32633	32960	32767	
1413	0	33812	32855	32553	32929	32803	
1414	0	31324	32506	33985	32775	32934	
1415	0	30888	32626	37735	32675	32933	
1416	0	31804	32755	40873	32765	32871	
1417	0	32354	33033	42470	32851	32924	
1418	0	32157	33161	42803	33047	32974	
1419	0	31418	33017	41900	33030	32902	
1420	0	30603	33002	35894	32930	32987	
1421	0	29781	32457	27597	32802	32864	
1422	0	28880	32159	17385	32830	32831	
1423	0	28658	31797	20941	32801	32925	
1424	0	28548	31593	27078	32821	32930	
1425	0	28582	31535	32687	32862	32957	
1426	0	30659	31855	32736	32881	32951	
1427	0	34455	32869	34506	32903	32923	
1428	0	37115	33691	37303	32922	33001	
1429	0	38613	33893	32546	32825	32886	
1430	0	38652	33635	27364	32659	32732	
1431	0	36324	32913	24593	32607	32694	
1432	0	33572	32289	16932	32690	32710	
1433	0	32406	32155	18902	32711	32775	
1434	0	31472	32327	27374	33081	32790	
1435	0	32141	32449	33525	33301	32895	
1436	0	32966	32384	41336	33200	32930	
1437	0	33632	32174	48135	32846	32857	
1438	0	33948	32123	50527	32642	32935	
1439	0	33069	31995	50880	32548	32832	
1440	0	32004	31781	50599	32384	32906	
1441	0	31969	31984	42242	32295	32754	
1442	0	31908	32124	26424	32457	32786	
1443	0	30872	32174	12960	32770	32818	
1444	0	29334	32335	10183	33211	32730	
1445	0	29219	32399	16683	33133	32809	
1446	0	30042	32767	22017	32977	32916	
1447	0	31494	33088	28418	32918	32944	
1448	0	33360	33426	37168	32846	32908	
1449	0	35600	33612	44256	32917	32924	
1450	0	37134	33926	46611	32642	32899	
1451	0	37452	34039	45561	32559	32921	
1452	0	36554	33856	36659	32618	32895	
1453	0	34843	33499	28297	32681	32763	
1454	0	33248	32676	19362	32793	32818	
1455	0	32200	32320	13536	32829	32656	
1456	0	32577	31612	20300	32822	32691	
1457	0	33514	31339	29942	32668	32687	
1458	0	34075	31537	36871	32881	32744	
1459	0	34704	31901	41222	32920	32984	
1460	0	34881	32480	41339	32829	32930	
1461	0	34744	33031	39103	32839	32955	
1462	0	33788	33381	37364	32868	32891	
1463	0	32960	33261	38998	33101	32902	
1464	0	32073	33227	38806	32983	32880	
1465	0	31369	32905	38375	32681	32876	
1466	0	30420	32551	35347	32656	32873	
1467	0	29782	32469	32199	32738	32877	
1468	0	29895	32613	33995	32807	32951	
1469	0	30066	32839	33646	32775	32967	
1470	0	30259	32797	31053	32676	32855	
1471	0	30866	32685	31813	32647	32851	
1472	0	31022	32317	29819	32631	32905	
1473	0	30111	32249	29435	32553	32916	
1474	0	29437	32418	34438	32568	32974	
1475	0	29358	32936	39012	32546	32967	
1476	0	30279	33395	43443	32402	32955	
1477	0	32072	33645	43169	32507	32937	
1478	0	34580	33453	31429	32643	32989	
1479	0	36850	33415	22094	32775	32931	
1480	0	38280	33378	21911	32933	32839	
1481	0	38754	32961	27893	33197	32912	
1482	0	37623	32533	31266	33037	32703	
1483	0	35719	32292	27887	32962	32842	
1484	0	33398	32011	25035	32911	32728	
1485	0	31144	32015	26577	33027	32787	
1486	0	29952	32222	31071	32978	32713	
1487	0	29349	32301	33616	32801	32793	
1488	0	29554	32461	38083	32805	32745	
1489	0	31296	32825	40830	32815	32845	
1490	0	31998	32933	33938	32852	32918	
1491	0	33249	32696	24386	32816	32960	
1492	0	33192	32391	22254	32755	32941	
1493	0	32133	32306	26482	32822	32972	
1494	0	30400	32217	34311	32775	32934	
1495	0	29634	32352	37847	32717	32886	
1496	0	30338	32940	40993	32608	32664	
1497	0	32213	33152	43015	32582	32761	
1498	0	34384	33302	41042	32493	32845	
1499	0	36182	33430	32902	32414	32837	
1500	0	38802	33573	23773	32752	32924	
1501	0	39218	33199	21991	33012	32941	
1502	0	37710	32599	25470	32997	32922	
1503	0	35892	31947	31448	33014	32962	
1504	0	34048	31519	35288	32997	32979	
1505	0	32489	31415	37674	32698	32923	
1506	0	32000	31431	39318	32363	32882	
1507	0	31931	31601	38697	32300	32923	
1508	0	31970	32275	38118	32524	32917	
1509	0	32292	32839	37841	32673	32861	
1510	0	32245	33223	34759	32932	32711	
1511	0	31876	33226	36035	33332	32718	
1512	0	31094	32582	40536	33640	32646	
1513	0	29830	32454	43724	33175	32564	
1514	0	29126	32741	42843	32839	32768	
1515	0	28944	32908	31361	32654	32930	
1516	0	28858	33175	19891	32577	32930	
1517	0	30361	33373	13190	32624	32978	
1518	0	32074	33555	16519	32484	32945	
1519	0	34812	33504	22115	32609	32893	
1520	0	37021	33387	29370	32839	32845	
1521	0	37532	33070	37988	32973	32752	
1522	0	35994	32551	43586	32770	32746	
1523	0	33833	32391	44141	32737	32799	
1524	0	31522	32226	39659	32743	32827	
1525	0	29700	31986	31325	32765	32920	
1526	0	28552	31804	26526	32763	32953	
1527	0	29045	32015	26067	32698	32894	
1528	0	30922	32244	27849	32669	32903	
1529	0	33961	32531	28626	32797	32869	
1530	0	37046	33033	29282	33021	32810	
1531	0	38680	33598	33044	32711	32839	
1532	0	38674	34078	36807	32565	32835	
1533	0	37436	33897	33463	33024	32908	
1534	0	35490	33379	29787	32877	32946	
1535	0	33128	33035	31599	32738	32882	
1536	0	30597	32903	33626	32600	32958	
1537	0	28825	32837	32745	32743	32941	
1538	0	28986	32679	32019	33184	32962	
1539	0	29469	32487	31546	33127	32903	
1540	0	29855	32059	30691	32954	32859	
1541	0	31112	31465	32680	32672	32869	
1542	0	32565	30613	37337	32698	32771	
1543	0	33216	29933	40449	32771	32719	
1544	0	33336	29955	40549	32704	32937	
1545	0	32712	30825	40019	32753	32982	
1546	0	31701	31826	39218	32757	32801	
1547	0	30181	33247	38653	32557	32738	
1548	0	28521	33918	39615	32630	32921	
1549	0	27493	34422	32607	32711	32910	
1550	0	28146	34110	28689	32626	32955	
1551	0	30875	33650	23754	32563	32891	
1552	0	33568	33062	22424	32627	32742	
1553	0	34992	32802	17429	32669	32775	
1554	0	35936	32935	16681	32638	32711	
1555	0	35334	33087	21126	32738	32679	
1556	0	34178	33239	29326	32676	32634	
1557	0	33953	33143	36519	32517	32651	
1558	0	33876	33005	38855	32486	32703	
1559	0	35051	32950	41491	32583	32758	
1560	0	36742	32669	42651	32688	32752	
1561	0	37762	32523	40775	32903	32762	
1562	0	37533	32443	36415	33089	32813	
1563	0	35398	32280	34068	32967	32947	
1564	0	32256	32259	30661	32869	32859	
1565	0	29998	32283	33306	32878	32933	
1566	0	28235	32837	31072	32771	32919	
1567	0	28541	33253	26460	32751	32741	
1568	0	29613	33287	27382	32735	32829	
1569	0	31352	33138	28837	32903	32757	
1570	0	33424	32927	33170	32860	32838	
1571	0	35810	32723	36026	32932	32934	
1572	0	37769	32367	34523	32760	32937	
1573	0	38865	31977	33085	32704	32936	
1574	0	38227	31937	35329	32642	32722	
1575	0	36049	32199	36753	32606	32706	
1576	0	34284	32322	38462	32743	32906	
1577	0	33304	32731	39997	32743	32894	
1578	0	31634	33798	41239	32514	32882	
1579	0	29824	35425	44039	32462	32759	
1580	0	28556	36948	40912	32671	32750	
1581	0	27744	37879	31285	32775	32795	
1582	0	28324	37811	27386	32982	32670	
1583	0	30272	35698	28615	33112	32849	
1584	0	32422	32246	29935	33287	32892	
1585	0	33970	28818	31530	33199	32856	
1586	0	35184	26195	32601	33204	32761	
1587	0	35540	25213	28391	32899	32697	
1588	0	34886	26244	22276	32755	32728	
1589	0	32154	28120	24041	32720	32963	
1590	0	29565	30304	36368	32683	32928	
1591	0	28116	31339	43103	32767	32990	
1592	0	28115	32104	37817	32717	32824	
1593	0	29786	32827	28925	32545	32667	
1594	0	32502	33218	27544	32549	32757	
1595	0	33381	34113	29871	32455	32898	
1596	0	32419	34988	30229	32786	32955	
1597	0	30509	34887	29943	33079	32676	
1598	0	28988	35034	28775	32998	32711	
1599	0	28152	35059	25808	32833	32839	
1600	0	29413	34657	28138	32739	32917	
1601	0	32358	33854	27471	32725	32941	
1602	0	36162	32894	27821	32800	32816	
1603	0	39345	31694	26050	32704	32904	
1604	0	40524	30849	26481	32903	32978	
1605	0	40504	30370	30874	32898	32921	
1606	0	39760	30761	38421	32672	32702	
1607	0	38774	31896	45542	32520	32804	
1608	0	37656	32562	46069	32400	32945	
1609	0	35864	33107	40785	32525	32915	
1610	0	34416	33611	33544	32647	32946	
1611	0	32946	33973	29624	32934	32898	
1612	0	31128	33775	29484	33323	32948	
1613	0	30563	33589	33187	33497	32839	
1614	0	30244	33223	35483	32895	32775	
1615	0	30548	33178	37574	32583	32860	
1616	0	30896	33344	42370	32595	32733	
1617	0	30747	33415	43233	32597	32647	
1618	0	30504	33558	43607	32667	32629	
1619	0	29867	33074	41923	32818	32677	
1620	0	29646	32609	38567	32775	32742	
1621	0	30097	31702	27756	32772	32716	
1622	0	30584	31019	22589	32845	32729	
1623	0	30960	30885	21129	32902	32873	
1624	0	31190	31073	14270	32853	32901	
1625	0	31750	31724	13726	32611	32839	
1626	0	33442	32537	28220	32708	32699	
1627	0	34538	32967	35539	32739	32711	
1628	0	35013	33485	33575	32775	32831	
1629	0	34379	33875	30490	32788	32978	
1630	0	33204	34007	32911	32760	33019	
1631	0	32263	33675	30935	32797	32983	
1632	0	31170	32999	28854	32805	32951	
1633	0	30711	32599	31744	32573	32927	
1634	0	31017	32342	35412	32480	32775	
1635	0	31536	31951	37943	32621	32748	
1636	0	32097	32162	39699	32711	32903	
1637	0	34013	32377	42372	32821	32902	
1638	0	34624	32379	43433	32671	32933	
1639	0	32756	32367	44882	32740	32963	
1640	0	30182	32417	42491	32797	32921	
1641	0	27987	32800	35926	32775	32961	
1642	0	27924	33132	25877	32870	32801	
1643	0	30386	33379	21619	32732	32775	
1644	0	34260	33565	31517	32693	32708	
1645	0	37635	33338	37818	32707	32706	
1646	0	38994	33011	35046	32802	32680	
1647	0	38381	32735	29360	32812	32717	
1648	0	36477	32570	26022	32869	32967	
1649	0	34528	32671	22600	32884	32975	
1650	0	33896	32655	20003	32774	32832	
1651	0	33120	32723	24752	33037	32818	
1652	0	31618	32930	31954	32969	32861	
1653	0	30924	32772	39826	33011	32967	
1654	0	30850	32733	43407	32919	32953	
1655	0	30244	33003	42917	32839	32950	
1656	0	30012	32963	39477	32879	32959	
1657	0	30760	32827	32501	32882	32900	
1658	0	31341	32855	20861	32651	32944	
1659	0	31398	32628	20865	32843	32887	
1660	0	32538	32466	28962	32838	32835	
1661	0	33078	32307	31973	32614	32762	
1662	0	33219	32308	33769	32530	32691	
1663	0	34311	32436	35411	32575	32703	
1664	0	36208	32675	35872	32703	32736	
1665	0	37316	32363	37651	32903	32703	
1666	0	36477	32313	33915	32879	32787	
1667	0	33784	32247	30106	32807	32928	
1668	0	31208	32415	31152	32775	32890	
1669	0	29693	32489	31270	32712	32871	
1670	0	29563	32457	28715	32855	32736	
1671	0	31801	32397	30837	32909	32706	
1672	0	35238	32111	36524	32775	32697	
1673	0	37376	32189	37780	32726	32809	
1674	0	37286	32135	37050	32703	32967	
1675	0	35088	32253	35970	32775	32982	
1676	0	32393	32300	34395	32976	32850	
1677	0	30156	32297	34589	32928	32967	
1678	0	28695	32369	37442	32792	32926	
1679	0	27700	32485	39886	32792	32911	
1680	0	27813	33055	40455	32691	32947	
1681	0	29141	33943	38043	32541	32955	
1682	0	32254	33764	36243	32421	32993	
1683	0	35335	33400	34182	32589	32906	
1684	0	37028	32907	29727	32844	32945	
1685	0	37042	32483	24774	33215	32875	
1686	0	35604	32390	22193	32943	32775	
1687	0	33900	32055	23615	32850	32794	
1688	0	32119	32173	29189	32984	32742	
1689	0	29584	32377	32933	32841	32711	
1690	0	27573	32221	29584	32614	32839	
1691	0	26846	32480	28963	32569	32857	
1692	0	27794	32999	31225	32640	32935	
1693	0	30456	33167	33925	32774	32953	
1694	0	33095	33686	31273	32839	32991	
1695	0	34329	33986	31903	32757	32937	
1696	0	35328	33688	33223	32733	32959	
1697	0	36208	32775	32221	32739	32896	
1698	0	36560	31951	34509	32799	32898	
1699	0	36472	31171	35619	32891	32987	
1700	0	36236	30985	39751	33080	32973	
1701	0	36092	31401	44359	33152	32909	
1702	0	35782	32167	38937	33028	32775	
1703	0	34816	33205	26855	32720	32797	
1704	0	34374	33503	26075	32677	32733	
1705	0	33448	33497	29861	32775	32775	
1706	0	31600	33235	29001	32719	32875	
1707	0	29518	32247	25458	32771	32891	
1708	0	28310	31507	23628	32989	32863	
1709	0	29840	31213	24071	32992	32744	
1710	0	32566	31670	26104	32807	32830	
1711	0	34586	32432	32758	32509	32727	
1712	0	34760	33183	34177	32433	32707	
1713	0	34912	33703	34993	32485	32827	
1714	0	34407	33855	37265	32486	32912	
1715	0	33844	33650	38656	32678	33057	
1716	0	33040	33237	39905	32807	32998	
1717	0	32494	32879	38599	32815	32971	
1718	0	32613	32534	34375	32749	32978	
1719	0	32841	32155	34219	32637	32947	
1720	0	33066	31732	35694	32716	32967	
1721	0	33614	31523	37337	32765	32981	
1722	0	34089	31799	37727	32733	32884	
1723	0	34119	32339	37799	32703	32716	
1724	0	33522	33176	34605	32794	32690	
1725	0	32082	33597	28160	32768	32677	
1726	0	30836	34142	28865	32731	32693	
1727	0	30727	33922	32630	33059	32655	
1728	0	30589	33630	30224	33115	32709	
1729	0	30893	32972	23958	33045	32690	
1730	0	30828	32320	18787	32945	32655	
1731	0	30460	31699	23656	32723	32713	
1732	0	30249	31634	32808	32803	32733	
1733	0	29818	32244	37510	32770	32694	
1734	0	29830	32643	39405	32799	32669	
1735	0	30074	33108	39363	32797	32863	
1736	0	31005	33007	40658	32843	32851	
1737	0	32696	32343	38849	32759	32853	
1738	0	33677	31387	39149	32755	32873	
1739	0	33980	31096	36242	32754	32933	
1740	0	34144	31122	28768	32741	32943	
1741	0	33250	31663	25030	32685	32861	
1742	0	31692	32559	24966	32487	32939	
1743	0	30571	33200	32666	32514	32885	
1744	0	30663	33479	41285	32551	32883	
1745	0	32008	33658	44065	32683	33007	
1746	0	33351	33831	45375	32771	32907	
1747	0	34706	33513	38978	32818	32807	
1748	0	35752	33307	30678	32972	32686	
1749	0	36992	33104	15636	33008	32740	
1750	0	36772	33066	14949	32997	32788	
1751	0	34638	32856	27254	32940	32775	
1752	0	32376	32557	35554	32775	32817	
1753	0	30376	32290	31238	32861	32911	
1754	0	29454	32222	20802	32900	32922	
1755	0	29986	32089	16549	32858	32692	
1756	0	30883	31973	20614	33022	32755	
1757	0	32168	32102	27905	32872	32879	
1758	0	33144	32386	34311	32701	32939	
1759	0	33844	32734	39367	32694	32805	
1760	0	35138	32819	42526	32658	32711	
1761	0	36007	32753	44565	32591	32903	
1762	0	36537	32792	44545	32529	32933	
1763	0	36272	32827	44520	32487	32723	
1764	0	35274	32915	44550	32741	32745	
1765	0	33844	33079	41794	33106	33037	
1766	0	32423	33027	38133	33208	32955	
1767	0	30382	33017	37729	32882	32837	
1768	0	29330	32663	36479	32587	32709	
1769	0	29613	32574	34007	32489	32920	
1770	0	29929	32762	25072	32406	32950	
1771	0	30990	32910	13807	32223	32680	
1772	0	32124	32752	7578	32466	32845	
1773	0	34200	32681	13390	32941	32946	
1774	0	36092	32809	25080	32851	32944	
1775	0	36898	32902	34200	32696	32696	
1776	0	36132	33084	40947	32728	32825	
1777	0	34219	33251	41120	32805	32930	
1778	0	32362	33137	38785	32921	32975	
1779	0	32036	32553	36167	33190	32979	
1780	0	33072	31703	35258	33589	32889	
1781	0	34916	30887	38065	33106	32766	
1782	0	36612	30560	45874	32559	32705	
1783	0	36172	31090	50401	32598	32870	
1784	0	34544	31803	46883	32669	32941	
1785	0	32345	32768	32504	32954	32949	
1786	0	30684	33749	16641	33381	32914	
1787	0	29758	34390	14534	33287	32889	
1788	0	29394	34688	20120	33083	32879	
1789	0	28898	34223	29916	32972	32848	
1790	0	28968	33529	37862	32871	32959	
1791	0	29520	32603	40455	32656	33014	
1792	0	30318	31907	39745	32364	32827	
1793	0	31891	31521	43320	32368	32775	
1794	0	33244	31815	46489	32307	32830	
1795	0	32756	31962	33358	32315	32812	
1796	0	31364	31979	15033	32509	32857	
1797	0	31785	32317	13181	32975	32875	
1798	0	33824	32621	20719	32975	32820	
1799	0	35543	32406	26435	32859	32847	
1800	0	37064	31839	28146	32715	33007	
1801	0	37540	31846	30148	32839	32930	
1802	0	36387	32021	36499	32759	32943	
1803	0	34851	32733	41351	32736	32957	
1804	0	33799	33753	39177	32734	32915	
1805	0	32448	34357	33607	32817	32884	
1806	0	31154	34243	32216	32839	32755	
1807	0	30076	33479	34965	32850	32809	
1808	0	29151	32327	39015	32767	32857	
1809	0	29125	31301	39751	32839	32809	
1810	0	29054	30364	34638	32869	32765	
1811	0	28768	29934	24716	32861	32767	
1812	0	30209	30481	23317	32851	32693	
1813	0	31616	31955	22345	32839	32677	
1814	0	32933	33723	24631	32654	32660	
1815	0	33866	35155	29670	32482	32835	
1816	0	34282	35584	37283	32484	32862	
1817	0	33903	35286	41499	32672	32957	
1818	0	33266	34599	40737	32725	32895	
1819	0	33235	33998	41046	32703	32711	
1820	0	33620	33171	37697	32847	32718	
1821	0	34664	32196	36065	32863	32722	
1822	0	36463	31325	34630	32775	32703	
1823	0	37607	30599	33897	32736	32775	
1824	0	37315	30113	32775	33003	32995	
1825	0	35394	30343	33911	33021	32902	
1826	0	32184	31377	37405	32869	32775	
1827	0	29067	33080	34470	32792	32738	
1828	0	28306	34146	31994	32775	32679	
1829	0	29703	34553	31952	32775	32762	
1830	0	30777	33892	25085	32704	32774	
1831	0	30880	32738	21032	32695	32873	
1832	0	30616	31743	23963	32877	32924	
1833	0	31577	31446	30025	32789	32958	
1834	0	32871	31661	34629	32708	32996	
1835	0	33660	32324	36460	32665	32976	
1836	0	34440	32845	39167	32613	32898	
1837	0	35685	33035	34263	32583	32754	
1838	0	36537	32832	28294	32579	32696	
1839	0	36352	32745	23069	32716	32711	
1840	0	35282	32638	29719	32723	32813	
1841	0	34341	32879	37453	32729	32884	
1842	0	33339	33325	39833	32739	32955	
1843	0	33350	33605	36685	32671	32971	
1844	0	34221	33325	32795	32741	32967	
1845	0	35972	32620	35755	32903	32903	
1846	0	36000	32199	41136	33000	32705	
1847	0	34387	32067	44756	33071	32757	
1848	0	31832	32315	43327	33187	32717	
1849	0	28976	32658	40741	33024	32704	
1850	0	26883	32419	34427	32839	32803	
1851	0	26288	32173	23398	32980	32884	
1852	0	27068	32279	18896	33024	32894	
1853	0	29602	32759	20920	32809	32915	
1854	0	32032	33488	21555	32825	32912	
1855	0	33820	33775	16902	32786	32895	
1856	0	34611	33779	22380	32797	32958	
1857	0	33776	33598	28339	32537	32933	
1858	0	33673	33275	34577	32343	32719	
1859	0	33986	32988	38223	32436	32821	
1860	0	34884	32604	40192	32566	32871	
1861	0	34832	32303	41374	32391	32877	
1862	0	34140	32071	40863	32407	32959	
1863	0	34205	32018	34304	32740	32946	
1864	0	34711	32053	28771	32899	32693	
1865	0	34028	32243	33772	33004	32775	
1866	0	32846	32034	37409	33076	32902	
1867	0	31943	32078	37703	33011	32874	
1868	0	30810	32647	36963	32646	33019	
1869	0	30213	33552	32890	32448	32921	
1870	0	30114	34587	28245	32578	32750	
1871	0	29584	35590	26667	32809	32749	
1872	0	30159	35515	29143	32992	32751	
1873	0	30684	34054	35103	32701	32870	
1874	0	31419	32083	39053	32768	32903	
1875	0	32944	30210	39648	32975	32950	
1876	0	33099	29317	38470	32944	32989	
1877	0	31458	29763	36833	32735	32921	
1878	0	29810	30491	33095	32632	32834	
1879	0	29573	31111	31409	32775	32830	
1880	0	30762	31527	30343	32762	32815	
1881	0	31776	31906	30408	32617	32710	
1882	0	32532	32375	34663	32395	32753	
1883	0	33544	32804	32711	32528	32839	
1884	0	35311	33381	26489	32729	32876	
1885	0	37499	33203	24213	33046	32948	
1886	0	39149	32877	26503	33051	32956	
1887	0	38032	32765	26047	33055	33017	
1888	0	36065	32775	29301	32967	32877	
1889	0	35022	33270	33536	32761	32751	
1890	0	33664	33343	31389	33021	32875	
1891	0	32797	33283	25440	33045	32991	
1892	0	32374	33344	29989	32812	32843	
1893	0	32377	33035	37840	32803	32723	
1894	0	31772	32734	41095	32855	32727	
1895	0	30876	32419	40861	32837	32771	
1896	0	29970	32537	36502	32794	32829	
1897	0	31389	33087	40026	32605	32960	
1898	0	33036	33702	43344	32627	32894	
1899	0	34448	33785	41693	32710	32755	
1900	0	35731	33300	38181	32661	32897	
1901	0	36732	32221	32006	32775	32897	
1902	0	36296	31221	27343	32954	32932	
1903	0	33743	30677	20841	32927	32880	
1904	0	31104	31318	15736	32850	32952	
1905	0	29527	32279	17960	32799	32920	
1906	0	28760	32958	25547	32731	32716	
1907	0	29980	33139	33029	32775	32701	
1908	0	32236	33161	40090	32861	32797	
1909	0	33666	33232	46381	32684	32963	
1910	0	33892	33453	49636	32621	32953	
1911	0	33224	33567	52726	32635	32967	
1912	0	32128	33345	49671	32835	32955	
1913	0	31896	32717	34528	32736	32918	
1914	0	32306	32169	18104	32666	32902	
1915	0	32483	31868	6680	32331	32923	
1916	0	32620	32082	5969	32425	32972	
1917	0	32528	32705	10379	32521	33039	
1918	0	32954	33829	23958	32636	32978	
1919	0	33168	34352	35756	32792	32857	
1920	0	33581	34649	38252	32699	32796	
1921	0	34889	34331	38579	32861	32706	
1922	0	35830	33203	41498	33226	32675	
1923	0	35916	31430	44527	33147	32687	
1924	0	35384	29878	47288	33083	32856	
1925	0	33843	29209	50335	33184	32970	
1926	0	32066	29565	48688	33267	32775	
1927	0	30380	30861	31620	32955	32704	
1928	0	28482	32233	5454	32976	32856	
1929	0	27414	33216	3537	32960	32918	
1930	0	27664	33358	17294	32722	33004	
1931	0	28318	33538	30995	32612	32711	
1932	0	29618	33793	37585	32570	32849	
1933	0	31150	33602	40191	32653	32918	
1934	0	31784	33275	40937	32643	32803	
1935	0	31688	33317	41666	32518	32744	
1936	0	31764	32801	43551	32507	32687	
1937	0	32599	32472	43098	32450	32813	
1938	0	33178	32399	42679	32598	32934	
1939	0	33407	32678	44423	32815	32949	
1940	0	33529	33115	41319	33135	32759	
1941	0	33838	33615	41159	33275	32755	
1942	0	33938	33917	39861	33311	32763	
1943	0	33304	33967	37301	32753	32944	
1944	0	32452	34152	28679	32537	32944	
1945	0	31432	33970	12158	32716	32937	
1946	0	32000	33605	1129	32652	32910	
1947	0	33693	32527	3510	32580	32941	
1948	0	35856	31367	7543	32568	32916	
1949	0	37876	30465	29650	32666	32877	
1950	0	38512	30538	38130	32550	32679	
1951	0	37688	31136	38631	32483	32813	
1952	0	35682	31491	37735	32657	32855	
1953	0	33208	31785	37767	32824	32826	
1954	0	32763	32203	40587	32771	32742	
1955	0	32899	32529	42647	32685	32792	
1956	0	33472	32915	41491	32704	32902	
1957	0	34412	33414	39465	32710	32775	
1958	0	34200	33472	38467	32761	32723	
1959	0	34774	33687	36950	32845	32771	
1960	0	34594	33917	34885	32975	32951	
1961	0	34718	34279	35038	32861	32975	
1962	0	34894	34451	38695	32673	32860	
1963	0	34059	34141	43975	32677	32812	
1964	0	32506	33437	44589	32935	32967	
1965	0	30215	32598	38236	32985	32962	
1966	0	27542	31736	25777	33078	32805	
1967	0	26008	31007	19562	33224	32717	
1968	0	25341	30975	17957	33107	32923	
1969	0	26598	31679	18121	32635	32937	
1970	0	29105	32213	22164	32308	32775	
1971	0	32486	33132	29501	32522	32744	
1972	0	35410	33757	35214	32548	32827	
1973	0	36900	33427	38615	32639	32967	
1974	0	35936	32630	38181	32825	32939	
1975	0	33648	31943	28509	32909	32914	
1976	0	31706	31923	26377	32885	32839	
1977	0	30336	32216	34498	32746	32876	
1978	0	29579	33047	39461	32723	32976	
1979	0	30410	33335	38092	32812	33005	
1980	0	31785	33242	30616	33015	32956	
1981	0	33170	32792	29309	32958	32839	
1982	0	33617	32260	27903	32836	32861	
1983	0	33268	31634	23169	32817	32862	
1984	0	33131	31071	20831	32891	32729	
1985	0	33064	30855	28230	32758	32716	
1986	0	32288	31324	39487	32732	32873	
1987	0	31759	32059	46044	32835	32937	
1988	0	31610	33163	48741	32935	32798	
1989	0	32868	34107	44948	33165	32740	
1990	0	34372	34208	31558	33277	32708	
1991	0	35277	33992	15968	33098	32698	
1992	0	35954	33389	21976	32873	32674	
1993	0	36552	32274	35106	32677	32688	
1994	0	38068	30974	34131	32691	32818	
1995	0	38780	30193	26791	32809	32757	
1996	0	38550	30249	23599	32962	32751	
1997	0	36649	31565	28311	32927	32793	
1998	0	34640	33474	34478	32840	32860	
1999	0	32387	34656	37200	32680	32952	
2000	0	30695	35043	37552	32759	32802	
2001	0	29786	34695	38167	32703	32770	
2002	0	29316	33185	38575	32803	32935	
2003	0	29364	31851	41311	32789	32941	
2004	0	28708	31090	49101	32789	32861	
2005	0	28522	31129	48924	32809	32773	
2006	0	29028	31678	43931	32685	32674	
2007	0	28707	32698	28926	32617	32730	
2008	0	28831	34046	22664	32583	32873	
2009	0	29452	34867	20073	32562	32925	
2010	0	31538	34979	23014	32609	32955	
2011	0	33944	34707	28519	32547	32874	
2012	0	34698	33519	30429	32775	32839	
2013	0	34823	32063	32194	32775	32847	
2014	0	34192	30674	26062	32853	32888	
2015	0	33511	30051	23125	32908	32748	
2016	0	33196	30496	28464	32917	32717	
2017	0	33019	31741	33567	32967	32754	
2018	0	33773	32674	32139	33235	32835	
2019	0	34058	32924	24925	33218	32917	
2020	0	34379	33180	24815	33095	32921	
2021	0	33938	33765	33182	32811	32924	
2022	0	32848	34594	39082	32565	32927	
2023	0	31994	35518	42878	32524	32720	
2024	0	31851	35445	46535	32583	32726	
2025	0	32378	34726	47787	32635	32813	
2026	0	32554	33456	43895	32654	32819	
2027	0	32738	31938	33413	32888	32877	
2028	0	32772	30482	27725	33014	32904	
2029	0	32637	30029	29575	32775	32909	
2030	0	30965	30470	34160	32571	32890	
2031	0	30338	31479	35652	32507	32983	
2032	0	30962	32765	32365	32723	33026	
2033	0	31563	33325	28949	32911	32921	
2034	0	32828	33536	26365	33081	32919	
2035	0	33062	33386	26017	32966	32857	
2036	0	32573	33315	31175	32882	32739	
2037	0	32711	33132	36159	32747	32754	
2038	0	35050	33363	37929	32452	32911	
2039	0	37040	33906	33879	32464	33023	
2040	0	39248	33599	29206	32546	32873	
2041	0	40513	32494	23358	32360	32611	
2042	0	39862	31563	26530	32499	32699	
2043	0	36347	30696	34580	32832	32833	
2044	0	32411	30198	36789	33053	32967	
2045	0	30296	30973	36347	32952	32830	
2046	0	30116	32163	40322	32916	32624	
2047	0	31109	33247	44902	32835	32727	
2048	0	31698	34162	42887	32962	32876	
2049	0	31358	34404	25104	33161	32958	
2050	0	30727	33554	11892	33035	32966	
2051	0	30537	31936	7661	32707	32767	
2052	0	30776	30232	23544	32750	32818	
2053	0	31486	29131	35156	33159	32865	
2054	0	32813	29573	39431	32861	32903	
2055	0	33780	30861	37861	32510	32973	
2056	0	34876	32711	33749	32460	32907	
2057	0	33414	34335	27199	32813	32696	
2058	0	30203	35396	27942	33138	32817	
2059	0	27954	36230	29369	33170	32850	
2060	0	26688	36759	32815	32868	32898	
2061	0	27616	36384	38786	32424	32992	
2062	0	30353	35014	43520	32460	32974	
2063	0	34274	32941	43033	32528	32722	
2064	0	37538	30855	39984	32165	32699	
2065	0	39367	29469	38229	31986	32822	
2066	0	38258	29427	35523	32295	32907	
2067	0	35956	30642	34005	33116	32975	
2068	0	33483	32455	34781	34571	32949	
2069	0	30976	33464	35535	33958	32863	
2070	0	29841	34159	36227	32669	32871	
2071	0	30749	33829	41077	32563	32775	
2072	0	32186	32940	45318	32615	32689	
2073	0	33466	31890	41009	32767	32680	
2074	0	34738	30964	29243	32869	32876	
2075	0	35606	30424	16853	33013	32903	
2076	0	34907	30891	16823	32943	32963	
2077	0	33529	31943	22221	32888	32956	
2078	0	31789	32414	19004	32773	32850	
2079	0	30830	32882	20016	32726	32800	
2080	0	30531	33357	23732	32475	32950	
2081	0	29412	33831	27104	32383	33007	
2082	0	28555	34207	29677	32577	32959	
2083	0	28187	34637	35421	32650	32766	
2084	0	27818	34715	42354	32730	32706	
2085	0	29484	34195	43503	32805	32670	
2086	0	31285	33799	38865	32741	32711	
2087	0	33175	33870	31767	32527	32869	
2088	0	34840	33693	33957	32390	32946	
2089	0	36359	33443	37452	32339	33007	
2090	0	37077	33148	36231	32518	32769	
2091	0	37106	32473	38789	32831	32869	
2092	0	37028	31695	40733	32829	32975	
2093	0	36184	31033	38511	32800	32896	
2094	0	34434	31152	30471	32871	32883	
2095	0	32577	31395	25571	32943	32866	
2096	0	30637	31301	25062	32932	32917	
2097	0	29157	31351	24830	32939	32886	
2098	0	28578	31062	26655	32701	32987	
2099	0	29164	30975	33252	32639	32967	
2100	0	31748	31954	38887	32669	32871	
2101	0	34162	32898	40040	33086	32911	
2102	0	35028	33575	40647	33167	32950	
2103	0	34857	32936	36303	33135	32879	
2104	0	34776	31987	31160	33152	32699	
2105	0	34659	31135	29713	33004	32738	
2106	0	35170	31720	30415	32690	32767	
2107	0	35962	32626	31674	32630	32694	
2108	0	35064	33525	35695	32560	32669	
2109	0	32444	33271	41680	32584	32940	
2110	0	29519	32562	43220	32609	32965	
2111	0	28416	31651	41023	32583	32978	
2112	0	29541	31139	37579	32763	32917	
2113	0	31572	31226	28096	32818	32905	
2114	0	33844	32306	15133	32623	32860	
2115	0	36487	34023	17638	32589	32730	
2116	0	37650	35151	21964	32595	32676	
2117	0	37288	35326	21122	32839	32671	
2118	0	36295	34455	27088	33165	32699	
2119	0	35024	33384	36539	33150	32812	
2120	0	32498	32674	41530	32879	32837	
2121	0	30922	32405	38132	32757	32869	
2122	0	29504	32132	28783	32698	33010	
2123	0	29028	32431	25815	32677	33006	
2124	0	28822	32797	31285	32739	33011	
2125	0	29589	33279	35135	32768	32972	
2126	0	30798	33722	36321	32421	32982	
2127	0	30683	33767	35733	32291	32981	
2128	0	30624	33791	36295	32453	32995	
2129	0	29149	33791	40300	32583	33021	
2130	0	28280	33406	43739	32787	32967	
2131	0	28080	33473	39747	32841	32961	
2132	0	29452	33526	29120	32749	32937	
2133	0	32348	33194	22966	32621	33014	
2134	0	35880	32440	28942	32635	32996	
2135	0	38255	31391	33439	32775	32933	
2136	0	38885	30616	30599	32873	32912	
2137	0	38818	30330	30419	33047	32827	
2138	0	37635	30778	32409	33174	32837	
2139	0	36160	31581	34917	33083	32807	
2140	0	34512	32417	38207	32827	32867	
2141	0	33061	32607	38495	32882	32723	
2142	0	31751	32525	36623	33021	32691	
2143	0	31108	32551	37085	32927	32789	
2144	0	31000	32655	38883	32744	32934	
2145	0	30905	33328	37895	32557	32985	
2146	0	31973	33963	37202	32455	32990	
2147	0	32443	34164	34616	32419	32717	
2148	0	31501	34362	29330	32436	32680	
2149	0	30640	34017	23693	32705	32775	
2150	0	30330	34192	23052	32837	32934	
2151	0	30606	34458	22859	32829	32932	
2152	0	31644	34345	16202	32835	32768	
2153	0	32600	33653	14055	32839	32759	
2154	0	32784	31996	20813	32925	32735	
2155	0	32276	30584	32041	32961	32689	
2156	0	31928	29495	39683	33021	32702	
2157	0	32558	29286	41985	32953	32743	
2158	0	32930	30045	37357	32793	32709	
2159	0	34944	31239	37498	32773	32770	
2160	0	37106	32039	39064	32888	32743	
2161	0	38330	32216	38919	32805	32733	
2162	0	37488	32627	34859	32819	32698	
2163	0	35730	32749	28770	32775	32653	
2164	0	34478	32849	27015	32765	32775	
2165	0	33732	32869	28538	32793	32809	
2166	0	33752	33024	32157	32913	32811	
2167	0	34260	32920	34791	32793	32891	
2168	0	33108	32838	35376	32635	32891	
2169	0	31285	32967	37441	32719	32971	
2170	0	29384	33040	39776	32755	32975	
2171	0	27742	33511	41291	32825	32877	
2172	0	27036	33973	43137	32898	32959	
2173	0	28197	33494	43439	32961	32989	
2174	0	30109	32839	42998	32919	32929	
2175	0	31645	32363	44286	32954	32884	
2176	0	32676	31839	45311	32845	32895	
2177	0	33256	31960	45635	32615	32990	
2178	0	32990	32598	42765	32502	32922	
2179	0	31876	33238	28822	32437	32970	
2180	0	30232	33046	1148	32876	32944	
2181	0	28188	32920	19	32593	32882	
2182	0	28034	32451	2163	32455	32880	
2183	0	30369	31928	6351	32696	32784	
2184	0	33604	32110	19699	32656	32845	
2185	0	36604	32134	33304	32877	32881	
2186	0	39128	32085	39224	32875	32915	
2187	0	39076	32031	39283	33150	32859	
2188	0	37812	31965	39088	33325	32754	
2189	0	36524	32237	42537	33026	32728	
2190	0	36212	33306	45153	32813	32761	
2191	0	35304	34425	45177	32427	32850	
2192	0	34166	35287	43239	32323	32775	
2193	0	33927	34910	38863	32384	32851	
2194	0	34463	33829	33794	32542	32999	
2195	0	34962	32553	29993	32556	32963	
2196	0	35243	31169	29618	32793	32832	
2197	0	34389	30225	32498	32985	32787	
2198	0	32114	29644	36150	33180	32879	
2199	0	30468	30112	39337	32912	32729	
2200	0	29028	31451	39029	32921	32706	
2201	0	29018	33217	35071	32855	32673	
2202	0	29910	34048	31462	32774	32711	
2203	0	30746	34447	27526	32839	32755	
2204	0	31640	33409	27067	33031	32775	
2205	0	32152	32375	29600	32909	32870	
2206	0	32744	31239	31905	32816	32967	
2207	0	33202	30768	28859	32696	32888	
2208	0	33625	31363	27227	32660	32851	
2209	0	34288	32513	30157	32645	32772	
2210	0	33605	33415	33149	32676	32737	
2211	0	31702	33785	39884	32752	32825	
2212	0	30446	33599	43570	32743	32877	
2213	0	30321	33954	43165	32635	32809	
2214	0	31081	34385	42534	32704	32685	
2215	0	32868	34400	38080	32731	32735	
2216	0	33385	34591	31785	32931	32997	
2217	0	32876	34161	30045	32997	32926	
2218	0	31445	33609	24907	32898	32764	
2219	0	29624	32608	13888	32824	32837	
2220	0	28615	31709	7419	32792	32915	
2221	0	28599	31474	12198	32855	32838	
2222	0	30080	31430	19818	32774	32752	
2223	0	31956	32013	31789	32756	32876	
2224	0	33788	32665	39155	32750	32853	
2225	0	35650	32377	41828	32712	32794	
2226	0	37541	31574	43795	32795	32839	
2227	0	37423	31199	41447	32837	32880	
2228	0	35332	31075	37590	32775	32770	
2229	0	34196	31963	31295	32728	32809	
2230	0	33217	33069	30287	32857	32723	
2231	0	32574	33589	38550	32769	32720	
2232	0	31377	34335	39904	32711	32843	
2233	0	31040	34535	36267	32740	33004	
2234	0	30075	34731	31709	32770	32927	
2235	0	29094	33867	31312	32695	33022	
2236	0	28660	33445	36871	32696	33021	
2237	0	30211	32330	37675	32736	32951	
2238	0	32229	31239	29053	32849	32916	
2239	0	33544	30611	18313	32574	32839	
2240	0	34664	31149	19410	32393	32802	
2241	0	36882	32461	27398	32612	32755	
2242	0	38568	33873	32464	32822	32735	
2243	0	39366	34784	37099	32960	32688	
2244	0	39301	34716	43496	32985	32678	
2245	0	39002	33402	46427	33096	32660	
2246	0	38736	31325	44582	33124	32640	
2247	0	38030	29304	35728	33142	32668	
2248	0	35552	28410	26603	32756	32689	
2249	0	32475	29223	25884	32556	32839	
2250	0	30554	30399	34521	32593	32989	
2251	0	29313	32199	38747	32747	32962	
2252	0	29596	33849	37046	32807	32898	
2253	0	28879	34730	33575	32742	32944	
2254	0	27165	35152	27310	32637	33029	
2255	0	25838	35101	24380	32698	32967	
2256	0	25694	34781	22951	32771	33005	
2257	0	26919	33903	23127	32839	32903	
2258	0	29877	32571	25946	32863	32960	
2259	0	32752	31570	34366	32818	32903	
2260	0	34752	30828	42558	32587	32851	
2261	0	35241	30703	45965	32487	32723	
2262	0	35543	31577	44944	32415	32900	
2263	0	36964	32425	35062	32285	32960	
2264	0	36098	32632	24903	32828	32869	
2265	0	34348	32503	22065	33046	32816	
2266	0	33104	32087	21584	32822	32666	
2267	0	31871	31943	25694	32765	32733	
2268	0	31696	32416	32636	32843	32647	
2269	0	31104	33364	33698	32933	32680	
2270	0	29834	34279	29811	32807	32792	
2271	0	28516	34919	29762	32695	32912	
2272	0	28758	34951	31614	32759	32977	
2273	0	29947	34175	35585	32793	32898	
2274	0	31849	33196	39687	32759	32824	
2275	0	34059	32155	42156	32693	32689	
2276	0	35650	31389	38085	32553	32813	
2277	0	36314	31035	34759	32179	32903	
2278	0	35721	30707	38011	32326	32871	
2279	0	35038	30959	42022	32486	32813	
2280	0	35189	31111	42375	32726	32765	
2281	0	35048	31961	34754	33079	32739	
2282	0	34198	33095	25994	32955	32741	
2283	0	34176	34058	22727	32852	32884	
2284	0	33703	34660	22589	32899	32953	
2285	0	32069	34626	26146	32855	32981	
2286	0	30950	33895	27262	32875	32891	
2287	0	30492	32967	31318	33134	32920	
2288	0	30966	32024	37626	33137	32911	
2289	0	32364	31064	44964	32982	32857	
2290	0	34310	31315	47732	32800	32848	
2291	0	35655	31417	45594	32801	32835	
2292	0	34940	31618	33287	32922	32922	
2293	0	33525	32000	24479	32731	32861	
2294	0	32244	32447	23757	32528	32903	
2295	0	31239	32797	27343	32583	32995	
2296	0	29978	33016	33360	32589	32952	
2297	0	28761	33545	38447	32680	32923	
2298	0	28394	34207	40375	32762	32966	
2299	0	29074	34783	35214	32718	32978	
2300	0	30579	34332	20633	32739	32907	
2301	0	31540	33863	14107	32671	32907	
2302	0	31787	32795	17870	32628	32801	
2303	0	32528	31566	27678	32627	32663	
2304	0	34258	30550	32927	32705	32873	
2305	0	36503	30166	37029	32865	32918	
2306	0	36378	30531	36629	32832	32946	
2307	0	35837	31335	36967	32797	32947	
2308	0	34656	32581	36941	32722	33001	
2309	0	33029	33715	35891	32626	32941	
2310	0	32402	34503	36422	32489	32899	
2311	0	32704	34607	36171	32607	32918	
2312	0	32681	34473	35247	32749	32860	
2313	0	32926	33879	38619	32797	32755	
2314	0	33922	33119	40111	32811	32741	
2315	0	35125	32674	33443	32841	32711	
2316	0	35792	32037	21189	33014	32781	
2317	0	36024	31614	8932	32912	32766	
2318	0	35924	31679	11526	32698	32730	
2319	0	34667	32248	24487	32722	32824	
2320	0	32390	32928	34540	32750	32841	
2321	0	30101	33060	42288	32761	32847	
2322	0	29402	32906	46795	32907	32813	
2323	0	29952	32573	49019	32979	32887	
2324	0	30582	32459	50787	32789	32967	
2325	0	30006	32719	45977	32690	33014	
2326	0	29006	33047	36264	32759	32829	
2327	0	29000	32899	33167	32821	32711	
2328	0	30473	32506	28224	32891	32699	
2329	0	32378	31622	17680	32908	32754	
2330	0	34754	31120	18823	32869	32773	
2331	0	36460	31146	31332	32684	32673	
2332	0	36020	31222	41357	32513	32665	
2333	0	34488	31907	41207	32585	32704	
2334	0	33424	32699	30792	32662	32709	
2335	0	31943	33829	22906	32925	32662	
2336	0	30898	34413	23317	33017	32711	
2337	0	29954	34228	32816	32868	32888	
2338	0	30810	33750	41479	32563	32966	
2339	0	33578	32829	43830	32646	32981	
2340	0	36048	31900	35016	32890	32863	
2341	0	37516	31232	20857	32677	32681	
2342	0	37684	31142	15752	32454	32922	
2343	0	36224	31815	21695	32672	32983	
2344	0	33296	32846	32024	32829	32912	
2345	0	30898	33381	38685	33019	32942	
2346	0	29016	33607	39405	32877	32898	
2347	0	27790	33522	40135	32772	32912	
2348	0	28022	33140	42605	32925	32978	
2349	0	29411	32854	39360	32911	32967	
2350	0	32186	32671	35129	32807	32985	
2351	0	35045	32374	35463	32615	32967	
2352	0	35485	32135	31820	32321	32962	
2353	0	33986	31457	28487	32647	32976	
2354	0	32016	30961	19050	32880	32986	
2355	0	30864	31438	18612	33053	32941	
2356	0	30727	32681	25748	33099	32918	
2357	0	32604	33765	34005	32852	32882	
2358	0	35112	34114	34207	32699	32868	
2359	0	36768	33791	32526	32637	32895	
2360	0	37280	33378	36880	32909	32927	
2361	0	36985	33029	40903	32917	32987	
2362	0	35758	32408	40877	32822	32931	
2363	0	34743	31998	38391	32742	32930	
2364	0	33696	31687	36039	32770	32896	
2365	0	32775	31801	34499	32769	32883	
2366	0	31181	31992	30541	32859	32926	
2367	0	29216	32351	29759	32731	32955	
2368	0	27367	32668	34093	32564	32996	
2369	0	25612	33557	37818	32520	32920	
2370	0	25846	34416	39417	32587	32989	
2371	0	27418	34723	38959	32738	33011	
2372	0	29753	34303	33382	32727	32920	
2373	0	31773	32978	31488	32818	32852	
2374	0	34468	31924	36073	32743	33016	
2375	0	36066	31311	38608	32833	32893	
2376	0	35007	31083	38841	32844	32943	
2377	0	33793	31197	36499	32857	32967	
2378	0	33124	31785	40477	32709	32998	
2379	0	33397	32503	40583	32613	32957	
2380	0	33879	32945	33583	32467	32934	
2381	0	34604	33370	18326	32520	32915	
2382	0	34438	33778	3119	32674	32914	
2383	0	34951	33851	4694	32826	32859	
2384	0	35106	33708	18351	32931	32902	
2385	0	34610	33407	30310	32864	32908	
2386	0	34637	32825	32162	33051	32914	
2387	0	34607	32146	25783	33434	32807	
2388	0	34029	31353	25905	33359	32823	
2389	0	34092	31321	31333	33021	32843	
2390	0	33482	31287	40327	32903	32797	
2391	0	33103	30863	43167	32839	32790	
2392	0	32712	30850	36422	32741	32936	
2393	0	31815	31343	32951	32813	32967	
2394	0	30416	31751	30727	32839	32896	
2395	0	29496	32160	32839	32890	32698	
2396	0	30118	32634	36935	32749	32740	
2397	0	31256	33488	41078	32556	32990	
2398	0	32165	34403	45529	32573	32723	
2399	0	33180	34704	47900	32474	32662	
2400	0	32978	35175	46827	32499	32683	
2401	0	32454	35984	40192	32435	32834	
2402	0	31864	37147	31890	32579	32927	
2403	0	31224	37363	32313	32530	32815	
2404	0	32462	35954	30746	32370	32734	
2405	0	34304	33634	24944	32654	32833	
2406	0	35272	30924	18438	32852	32916	
2407	0	35378	29412	18898	33168	32981	
2408	0	36159	29131	26563	33130	32914	
2409	0	36138	29350	26782	32980	32835	
2410	0	35556	29755	30865	32937	32775	
2411	0	34978	29465	34638	32824	32754	
2412	0	33744	28883	37407	33000	32798	
2413	0	33266	28699	39238	32923	32919	
2414	0	32966	29191	38774	32875	32976	
2415	0	33227	30004	36662	32894	32795	
2416	0	32874	30974	25538	33072	32690	
2417	0	32281	32163	21569	33021	32711	
2418	0	31371	33259	25730	32982	32723	
2419	0	30727	34354	31043	33094	32903	
2420	0	30562	34671	33571	33005	32937	
2421	0	29708	34484	35731	32745	32839	
2422	0	29396	34882	37193	32668	32711	
2423	0	30522	35021	36615	32479	32775	
2424	0	33160	34619	36903	32416	32967	
2425	0	35240	34461	39082	32459	32885	
2426	0	35816	34366	40653	32678	32634	
2427	0	36722	33983	40149	32801	32797	
2428	0	36009	33946	41590	32710	32979	
2429	0	33379	33735	42032	32651	32723	
2430	0	30829	33339	38267	32519	32720	
2431	0	29230	33205	33181	32509	32873	
2432	0	27472	33229	28048	32440	32903	
2433	0	26261	33243	26899	32658	32951	
2434	0	26292	33338	27570	32880	32875	
2435	0	28340	33555	26931	33055	32711	
2436	0	30864	33586	33023	33127	32763	
2437	0	32542	33191	36227	32919	32929	
2438	0	33853	32877	29108	32717	33061	
2439	0	35128	32279	26475	32699	32919	
2440	0	36398	31417	30855	32515	32730	
2441	0	36368	29933	32743	32615	32731	
2442	0	34904	29107	27460	32977	32873	
2443	0	32353	29314	20254	32932	32986	
2444	0	28816	30264	20860	32903	32934	
2445	0	26737	31522	23033	32838	32728	
2446	0	26301	32785	31002	32666	32709	
2447	0	28264	34228	40299	32544	32710	
2448	0	31912	34493	46272	32478	32903	
2449	0	36984	33888	42015	32482	32895	
2450	0	41129	33154	33940	32683	32934	
2451	0	42365	31879	26153	33363	32885	
2452	0	41408	31307	27392	33765	32800	
2453	0	39524	31519	35668	33296	32720	
2454	0	35704	32118	39299	32906	32665	
2455	0	32142	33412	40262	32735	32882	
2456	0	29985	33903	44871	32635	32937	
2457	0	30846	33873	49380	32711	32886	
2458	0	32036	34152	41705	32775	32851	
2459	0	32236	34017	17522	32987	32638	
2460	0	31840	33124	3973	33034	32784	
2461	0	33145	31664	9186	33001	32933	
2462	0	34772	31504	29434	32965	32860	
2463	0	36200	31879	36901	32751	32722	
2464	0	35688	32417	30943	32416	32801	
2465	0	34494	33040	20545	32431	32940	
2466	0	33148	33606	20194	32408	32836	
2467	0	32200	34234	30087	32672	32690	
2468	0	33041	34855	38570	32672	32882	
2469	0	33656	35335	43200	32548	32967	
2470	0	32488	35405	44647	32424	32912	
2471	0	30458	35110	45435	32390	32981	
2472	0	28554	33831	47226	32775	33007	
2473	0	26416	31974	48995	32936	32946	
2474	0	25024	30012	50411	32879	32978	
2475	0	25352	28122	47535	32812	32898	
2476	0	26524	27055	43817	32775	32877	
2477	0	27652	27725	37665	32607	32844	
2478	0	29104	29933	28064	32626	32948	
2479	0	30548	32428	23133	32765	32955	
2480	0	32109	34212	19229	32977	32787	
2481	0	35284	35155	18189	32797	32800	
2482	0	39134	34978	20710	32941	32827	
2483	0	41930	34889	20583	32945	32880	
2484	0	41617	34503	28118	33032	32873	
2485	0	39656	33565	31904	32967	32890	
2486	0	37042	32895	28825	32744	32848	
2487	0	34544	32654	29757	32652	32772	
2488	0	32944	32439	27783	32630	32749	
2489	0	32353	32372	30078	32663	32699	
2490	0	31861	32434	33762	32785	32619	
2491	0	31832	31914	33513	32827	32813	
2492	0	31192	31579	28814	32736	32978	
2493	0	28890	31734	30201	32818	32870	
2494	0	25514	32351	32745	32775	32835	
2495	0	25095	33001	34415	32773	32769	
2496	0	27163	33047	37006	32839	32716	
2497	0	30368	33591	36783	32946	32915	
2498	0	32809	33565	36824	32903	32937	
2499	0	34896	33877	39766	32789	32919	
2500	0	36359	33915	41963	32565	32774	
2501	0	37226	34217	40793	32653	32743	
2502	0	37657	34399	37287	32882	32711	
2503	0	35982	34055	37742	32852	32696	
2504	0	33772	32967	39060	32737	32694	
2505	0	32747	31129	36821	32835	32805	
2506	0	31952	29795	29547	33057	32882	
2507	0	32412	29626	18927	33029	32960	
2508	0	34285	30068	19254	32855	32871	
2509	0	36260	30713	20967	32772	32641	
2510	0	38336	31614	29071	32601	32825	
2511	0	38215	32603	38109	32454	32976	
2512	0	36619	33513	40681	32489	32773	
2513	0	34375	34525	39843	32650	32902	
2514	0	32448	35078	39001	33013	32941	
2515	0	31746	35310	40007	32863	32769	
2516	0	30344	34395	37743	32604	32792	
2517	0	29818	33712	24322	32825	32920	
2518	0	30044	33692	23559	32963	32764	
2519	0	29972	33647	31929	33021	32637	
2520	0	29080	32937	30559	33061	32803	
2521	0	29182	31975	23818	32927	32920	
2522	0	29426	30233	20731	32774	32907	
2523	0	30091	28846	23859	32679	32751	
2524	0	31433	28359	31075	32795	32749	
2525	0	33314	29344	39535	32728	32768	
2526	0	35737	30605	42621	32425	32899	
2527	0	36249	33249	40432	32526	32991	
2528	0	36190	35417	38919	32888	32882	
2529	0	35674	35709	37982	32866	32703	
2530	0	34449	34271	36751	32960	32719	
2531	0	33296	32021	33298	33136	32760	
2532	0	33432	30379	34689	32955	32719	
2533	0	33612	30183	34427	32792	32880	
2534	0	32372	30892	27830	32656	32931	
2535	0	31116	32205	27887	32543	32915	
2536	0	29290	33723	36795	32512	32944	
2537	0	27160	35544	37963	32495	32974	
2538	0	27261	37204	29042	32603	32952	
2539	0	28030	37505	19507	32759	32904	
2540	0	30249	36457	21447	32955	32839	
2541	0	32377	34434	30208	32985	32772	
2542	0	33885	32174	33541	32899	32731	
2543	0	34604	30320	29496	32975	32912	
2544	0	34333	28816	27477	33287	32939	
2545	0	35208	27847	34122	33415	32962	
2546	0	36999	27828	41906	33126	32879	
2547	0	37257	28975	40524	32774	32728	
2548	0	37269	30192	39609	32233	32696	
2549	0	36408	31814	42207	32176	32775	
2550	0	34496	33671	39703	32337	32705	
2551	0	31936	34665	38725	32455	32839	
2552	0	28873	35291	39341	32559	32973	
2553	0	27000	36024	35941	32619	32915	
2554	0	26980	35907	33189	32640	32812	
2555	0	27180	35205	32879	32502	32931	
2556	0	29412	34533	27364	32499	32877	
2557	0	31666	33994	18609	32579	32796	
2558	0	32564	33071	15319	32751	32711	
2559	0	33472	32215	18690	32602	32823	
2560	0	33653	31487	19456	32861	32952	
2561	0	32653	30901	18715	33285	32839	
2562	0	32658	31653	23643	33419	32731	
2563	0	33680	31827	30836	33235	32720	
2564	0	35013	32059	40944	33068	32809	
2565	0	36372	33172	48781	33231	32974	
2566	0	37408	34066	51706	33095	32732	
2567	0	37703	34215	47906	32939	32884	
2568	0	37042	33879	41799	32793	32981	
2569	0	35636	33164	31239	32790	32915	
2570	0	34200	32139	27138	32562	32775	
2571	0	34060	31396	29085	32402	32711	
2572	0	33277	31017	35576	32136	32809	
2573	0	32844	31968	41453	32068	32933	
2574	0	33180	32705	43358	32354	33011	
2575	0	33098	33382	37621	32466	32966	
2576	0	33381	33404	30044	32681	32921	
2577	0	32996	32408	22512	32848	32944	
2578	0	33236	31275	18506	33174	32919	
2579	0	33880	31462	20684	33554	32850	
2580	0	33682	32064	29622	33760	32888	
2581	0	33001	32933	37987	33461	32751	
2582	0	31369	33767	39879	32995	32711	
2583	0	28008	34627	42823	32727	32715	
2584	0	25795	34904	42055	32593	32830	
2585	0	25220	34459	35015	32515	32948	
2586	0	26733	33360	28109	32549	32977	
2587	0	31144	31777	29146	32623	32946	
2588	0	35282	30791	29608	32526	32943	
2589	0	37200	30240	19916	32666	32681	
2590	0	36653	29767	17517	32672	32775	
2591	0	34884	29911	25542	33005	32944	
2592	0	33184	30107	34080	33108	32923	
2593	0	31056	30299	39481	32710	32724	
2594	0	29901	31811	41035	32911	32701	
2595	0	28456	33712	35867	33373	32948	
2596	0	26548	35300	28241	32952	32992	
2597	0	26848	36446	30855	32448	32939	
2598	0	28456	36812	39849	32306	32909	
2599	0	32308	36438	44146	32455	32734	
2600	0	36411	34948	45250	32839	32751	
2601	0	38369	33167	42073	32963	32838	
2602	0	38187	31325	36882	33035	32923	
2603	0	36298	30185	33570	33005	32930	
2604	0	34276	29977	29107	32884	32856	
2605	0	32484	29906	20056	32775	32899	
2606	0	32421	30241	16445	32706	32883	
2607	0	33084	30138	25986	32787	32938	
2608	0	34031	30448	30533	32667	32923	
2609	0	34468	31606	24365	32751	32934	
2610	0	34514	33045	23601	32478	32870	
2611	0	34194	34602	33150	32386	32751	
2612	0	33170	35979	41064	32464	32634	
2613	0	32864	36525	39735	32595	32825	
2614	0	32666	35335	37347	32623	32834	
2615	0	32861	34085	40214	32655	32973	
2616	0	35165	32887	42818	32560	32880	
2617	0	36622	32739	38827	32756	32736	
2618	0	36816	32987	26276	32902	32720	
2619	0	35766	33287	17424	32759	32884	
2620	0	33568	33019	20781	32827	32979	
2621	0	30940	32108	33128	33073	32967	
2622	0	28856	30983	43323	33062	32908	
2623	0	28040	30395	45220	32837	32861	
2624	0	28082	30031	41479	32775	32683	
2625	0	30026	30657	35148	32617	32667	
2626	0	32330	31303	31634	32524	32835	
2627	0	33942	32148	33107	32539	32942	
2628	0	33876	33227	36509	32516	32933	
2629	0	33400	34087	37027	32562	32829	
2630	0	33208	34588	28958	32707	32722	
2631	0	32079	34857	26600	33022	32954	
2632	0	32103	34347	29271	33179	32890	
2633	0	33974	33161	28608	33042	32642	
2634	0	35824	32087	24912	33136	32658	
2635	0	38153	31311	26237	33278	32795	
2636	0	39254	30838	34938	33203	32916	
2637	0	38504	31056	44789	32971	32839	
2638	0	35920	31723	42906	32837	32722	
2639	0	31898	32424	25678	33012	32760	
2640	0	29292	33326	14057	32871	32775	
2641	0	26810	34051	25358	32630	32868	
2642	0	24870	34877	33898	32447	32976	
2643	0	25761	35093	34789	32489	32980	
2644	0	27829	33707	37181	32487	32995	
2645	0	30001	32425	36522	32607	32758	
2646	0	31048	32067	38905	32647	32740	
2647	0	30998	31879	36528	32654	32775	
2648	0	32379	31837	32483	32545	32911	
2649	0	33996	31905	30685	32829	32949	
2650	0	35680	32560	32022	32999	32935	
2651	0	35564	33011	37839	32797	32913	
2652	0	34128	32951	38979	32717	32793	
2653	0	32670	32532	31307	32630	32717	
2654	0	32272	32312	24671	32710	32775	
2655	0	33272	32670	29119	32682	32989	
2656	0	33616	32790	33713	32795	32967	
2657	0	33339	32767	34218	32775	32914	
2658	0	33963	32737	34375	32895	32736	
2659	0	33462	32199	29841	32795	32773	
2660	0	32366	32409	24530	32921	32941	
2661	0	32056	32639	28075	33357	32939	
2662	0	32704	32725	29278	33220	32775	
2663	0	33636	31812	25367	32978	32741	
2664	0	34355	31063	21784	32771	32915	
2665	0	35476	31079	26739	32653	32912	
2666	0	35760	31275	34307	32860	32771	
2667	0	35101	31764	40856	32951	32717	
2668	0	34304	32732	45892	33018	32656	
2669	0	32476	33875	47002	32960	32839	
2670	0	30768	34737	46657	32833	32804	
2671	0	29912	34535	47618	32834	32722	
2672	0	30312	33723	46943	32859	32775	
2673	0	31476	32775	42064	32762	32686	
2674	0	32696	31720	25748	32775	32691	
2675	0	32952	31468	11720	32669	32918	
2676	0	33080	32165	12827	32735	32993	
2677	0	32809	32726	21157	32455	32873	
2678	0	33220	32962	28585	32327	32867	
2679	0	33056	33662	29751	32297	32961	
2680	0	32408	33892	28624	32375	32930	
2681	0	31742	33890	37255	32480	32969	
2682	0	31530	33699	43193	32792	32906	
2683	0	31842	33779	42327	33316	33027	
2684	0	32872	33787	35118	33287	32967	
2685	0	33351	32967	32735	33063	32919	
2686	0	32816	31434	38222	32873	32797	
2687	0	31773	30022	44754	32850	32711	
2688	0	31046	29030	41314	32813	32729	
2689	0	30976	29241	30798	32849	32734	
2690	0	30014	30179	20904	32672	32786	
2691	0	29168	31892	11632	32564	32886	
2692	0	29808	33108	16012	32688	32962	
2693	0	31104	35188	27877	32711	32807	
2694	0	33226	35166	34983	32845	32690	
2695	0	35106	35107	40255	32921	32763	
2696	0	35847	34430	43599	32935	32942	
2697	0	35266	33711	43456	32885	32955	
2698	0	34085	33110	40890	32978	32896	
2699	0	32793	32575	36919	32647	32866	
2700	0	32704	32578	27773	32718	32730	
2701	0	32775	32637	25021	32894	32683	
2702	0	33449	32595	29556	32775	32717	
2703	0	34534	31652	35623	32649	32862	
2704	0	35579	30986	40200	32995	32925	
2705	0	35144	30357	40611	32829	32830	
2706	0	34672	30298	32018	32330	33024	
2707	0	34562	31287	25056	32253	32997	
2708	0	33342	32634	26333	32263	32895	
2709	0	32980	33949	26640	32248	32797	
2710	0	31976	35035	23901	32475	32693	
2711	0	32435	35519	26148	32999	32827	
2712	0	34578	34894	33728	33161	32936	
2713	0	35465	33649	40064	33219	32642	
2714	0	35238	32715	39849	33323	32747	
2715	0	34570	32775	38599	33306	32950	
2716	0	32764	33479	37785	32707	32893	
2717	0	30198	33853	31925	32472	32920	
2718	0	28419	33431	26970	32652	32931	
2719	0	28182	32564	28975	32716	32775	
2720	0	29438	31630	33055	32607	32730	
2721	0	31077	31329	31163	32654	32898	
2722	0	32996	32566	34047	32773	33014	
2723	0	34723	33501	39291	32899	32966	
2724	0	35082	33410	33862	33105	32898	
2725	0	35328	33071	28748	32911	32839	
2726	0	35214	32599	26756	32816	32775	
2727	0	34658	32109	23671	32864	32711	
2728	0	34142	31986	23425	32835	32663	
2729	0	33326	32438	27639	33045	32717	
2730	0	33460	33059	33976	32911	32861	
2731	0	34144	32917	42461	32774	32987	
2732	0	35330	32775	52666	32622	32976	
2733	0	35385	32617	58788	32505	32815	
2734	0	33175	32361	54930	32527	32699	
2735	0	30278	30918	44370	32578	32711	
2736	0	25854	29708	24876	32784	32740	
2737	0	21986	29435	1198	32992	32832	
2738	0	20941	29938	1195	32998	32816	
2739	0	23961	30142	5097	32806	32860	
2740	0	29528	30076	12568	32514	32721	
2741	0	34392	30562	34045	32863	32824	
2742	0	37821	32016	43459	32866	32800	
2743	0	39280	33242	43507	32656	32898	
2744	0	39909	34696	42535	32537	32907	
2745	0	39837	35323	44952	32681	32947	
2746	0	39197	35399	42360	32740	33001	
2747	0	36706	35774	41127	32775	32979	
2748	0	35565	36509	40829	32987	32902	
2749	0	33430	37467	40674	33212	32877	
2750	0	31323	37554	37110	33342	32676	
2751	0	29415	35824	32571	33479	32715	
2752	0	27224	32066	30022	33488	32918	
2753	0	25906	28893	27214	32959	32902	
2754	0	25495	27645	30109	32330	32955	
2755	0	26105	27372	35494	32135	32967	
2756	0	29312	28205	36719	32263	32918	
2757	0	33353	29287	29868	32584	32904	
2758	0	37073	30181	18356	32573	32898	
2759	0	39038	31036	10414	32539	32960	
2760	0	39646	32322	20878	32699	32842	
2761	0	37383	33179	30727	32704	32870	
2762	0	34310	33799	34151	32715	32923	
2763	0	32076	34084	37145	32755	32884	
2764	0	30985	34642	40745	32754	32865	
2765	0	30676	34851	42866	32758	32943	
2766	0	30824	35703	42339	32755	32903	
2767	0	31111	36035	39687	32989	32807	
2768	0	32139	34650	34927	33103	32795	
2769	0	32944	32813	31687	33218	32811	
2770	0	33208	31697	31194	32946	32921	
2771	0	33933	31465	29380	32813	32947	
2772	0	35314	31960	23665	32930	32970	
2773	0	36054	31972	23175	32987	32928	
2774	0	36871	31793	30893	32890	32915	
2775	0	39256	32124	39046	32774	32885	
2776	0	41652	32845	46278	32603	32794	
2777	0	41464	33699	50075	32724	32730	
2778	0	38016	33943	43890	33154	32691	
2779	0	31952	33407	30936	33370	32775	
2780	0	27892	32293	13120	33312	32992	
2781	0	27064	31173	10571	33177	32923	
2782	0	27823	30727	15694	32930	32761	
2783	0	29942	30780	21996	32641	32787	
2784	0	31100	31670	28775	32698	32930	
2785	0	31628	33043	36096	32829	32962	
2786	0	31045	33745	38113	33013	32850	
2787	0	30172	34358	39777	32991	32792	
2788	0	28792	34994	45612	32928	32700	
2789	0	27342	34794	48133	32559	32728	
2790	0	25495	34746	44539	32301	32809	
2791	0	24665	34797	36486	32367	32919	
2792	0	25802	34159	27067	32566	32939	
2793	0	27549	33159	24583	32647	32843	
2794	0	29508	31635	26543	32985	32813	
2795	0	32482	30603	28627	33219	32839	
2796	0	35942	31079	30421	32518	32707	
2797	0	38368	31954	29797	31971	32699	
2798	0	39776	32597	31183	31943	32741	
2799	0	39250	32601	35783	32356	32856	
2800	0	37188	31890	42071	32696	32910	
2801	0	35194	31835	42727	32879	32911	
2802	0	34440	32173	36281	32580	32957	
2803	0	34499	33093	28899	32614	32873	
2804	0	34150	33831	27232	32711	32800	
2805	0	34282	33957	30745	32835	32704	
2806	0	34048	33783	30320	33009	32729	
2807	0	33161	33248	26273	33095	32689	
2808	0	31340	32577	27559	33177	32812	
2809	0	30275	32745	35994	33174	32957	
2810	0	30192	32357	41734	32955	32953	
2811	0	30621	32263	45343	32881	32919	
2812	0	32276	31860	49733	33023	32715	
2813	0	33705	31263	47839	32721	32731	
2814	0	33632	31012	38215	32474	32974	
2815	0	32730	30882	24884	32608	32973	
2816	0	30614	30752	17864	32849	32868	
2817	0	29181	31424	15005	33095	32731	
2818	0	28672	32040	13589	33216	32728	
2819	0	29769	32172	23729	33076	32679	
2820	0	32704	32219	35276	32900	32752	
2821	0	35428	32263	35936	32707	32965	
2822	0	37556	33009	28912	32628	32989	
2823	0	38332	33825	28363	32635	32839	
2824	0	38714	33827	35058	32603	32698	
2825	0	37429	33243	40283	32617	32727	
2826	0	34674	31971	36518	32669	32804	
2827	0	31206	30505	27298	33186	32888	
2828	0	29663	30727	23697	33287	32961	
2829	0	30252	32199	32460	32935	32926	
2830	0	31364	33997	39474	32592	32784	
2831	0	32104	35759	39519	32446	32739	
2832	0	31447	37074	37335	32467	32775	
2833	0	30025	36387	36863	32531	32917	
2834	0	29219	34486	35245	32579	32998	
2835	0	28980	33700	33305	32578	33011	
2836	0	30286	33242	34279	32471	32794	
2837	0	31341	33152	34898	33222	32749	
2838	0	33769	33341	35570	33575	32787	
2839	0	35608	33267	31780	33062	32774	
2840	0	37202	31670	25606	32693	32651	
2841	0	37297	29573	25823	32285	32645	
2842	0	35847	28533	30057	32436	32707	
2843	0	33799	28319	32101	32699	32790	
2844	0	32623	29355	33671	32730	32889	
2845	0	33344	30853	33402	32769	32873	
2846	0	34586	32920	37906	32559	32722	
2847	0	35404	34363	42624	32832	32859	
2848	0	35638	35365	43240	32896	32947	
2849	0	34403	35376	37933	32667	32987	
2850	0	32124	33792	27247	32730	32873	
2851	0	30336	31737	19700	33421	32883	
2852	0	28992	30849	23864	33685	32713	
2853	0	29278	31239	27352	32839	32765	
2854	0	31048	32555	28377	32447	32912	
2855	0	33875	34496	30071	32539	32930	
2856	0	35043	35531	32322	32860	32749	
2857	0	35464	35200	37042	33150	32837	
2858	0	35865	33565	39535	33167	32955	
2859	0	35594	32169	39751	32895	32952	
2860	0	33528	30484	38407	32548	32898	
2861	0	31608	28964	30970	32327	32718	
2862	0	29198	29077	22974	32309	32775	
2863	0	27669	30393	24013	32182	32967	
2864	0	27680	31958	30397	32274	32849	
2865	0	27856	32944	37001	32347	32676	
2866	0	28652	32988	41872	32513	32665	
2867	0	30606	33159	40619	32602	32791	
2868	0	32508	33868	33900	32728	32839	
2869	0	33258	34951	23885	32850	32896	
2870	0	33889	35410	21153	32907	32879	
2871	0	35846	34521	30040	33337	32713	
2872	0	38384	33182	42394	33112	32746	
2873	0	40192	32400	50082	32960	32726	
2874	0	40330	31542	55682	33038	32718	
2875	0	38190	31365	52843	33147	32731	
2876	0	35002	31395	43539	33358	32795	
2877	0	30648	32113	27780	32950	32710	
2878	0	27652	32853	17232	32571	32767	
2879	0	26503	33261	14914	32153	32858	
2880	0	26782	33416	8762	31812	32880	
2881	0	28650	33266	11231	32371	32907	
2882	0	31044	33014	17299	32320	32946	
2883	0	32876	32896	26205	32332	32876	
2884	0	34098	32642	35805	32658	32696	
2885	0	35371	31664	36643	32902	32767	
2886	0	35632	31297	32967	32957	32725	
2887	0	34875	31738	30907	32883	32713	
2888	0	33605	32882	30971	32798	32711	
2889	0	32112	34461	34615	32775	32909	
2890	0	30936	35608	37980	32753	32979	
2891	0	31184	34999	40967	32844	32903	
2892	0	31304	33680	43835	33109	32944	
2893	0	31482	32023	43174	33082	32893	
2894	0	30072	30551	39787	32925	32761	
2895	0	28660	29978	41904	32880	32984	
2896	0	27824	30875	46498	32599	32872	
2897	0	27372	31547	45093	32536	32703	
2898	0	29111	32021	37063	32712	32695	
2899	0	32909	32498	28665	32720	32833	
2900	0	37280	32832	28198	32688	32892	
2901	0	41218	33209	29953	32809	32859	
2902	0	41899	34008	31739	32927	32925	
2903	0	39485	35001	36146	32815	32952	
2904	0	35502	35469	33037	32811	32984	
2905	0	31760	35352	19558	32665	32936	
2906	0	28664	34142	3430	32796	32937	
2907	0	29092	33061	4824	33063	32883	
2908	0	31104	32612	25279	33047	32712	
2909	0	32528	32551	38127	32829	32672	
2910	0	33555	32523	36081	32993	32679	
2911	0	34547	31815	33819	32903	32775	
2912	0	35463	30384	35925	32819	32803	
2913	0	34954	28743	37459	32965	32766	
2914	0	34552	28099	36541	32951	32701	
2915	0	34496	29123	35335	32685	32891	
2916	0	34456	30739	34978	32663	32987	
2917	0	34222	32390	33645	32495	32930	
2918	0	33171	33595	30860	32348	32934	
2919	0	31030	34267	29929	32482	32759	
2920	0	30024	34723	30529	32647	32820	
2921	0	30163	34912	32134	32583	32927	
2922	0	30376	34567	35560	32763	33017	
2923	0	30919	33647	37047	32909	32919	
2924	0	31541	33197	38097	32933	32698	
2925	0	33130	33137	37727	32896	32737	
2926	0	34823	33562	37619	32770	32759	
2927	0	35533	33856	37667	32592	32935	
2928	0	36117	33663	37366	32515	32894	
2929	0	36090	32887	35607	32443	32706	
2930	0	34096	31967	34075	32445	32819	
2931	0	30715	31643	35816	32594	32971	
2932	0	28828	31663	38745	32662	32967	
2933	0	28201	31967	38712	33110	32834	
2934	0	28478	32517	38391	33362	32871	
2935	0	29320	32602	32659	33082	32866	
2936	0	30330	32425	27536	32881	32720	
2937	0	30978	32168	33243	32775	32809	
2938	0	31858	32231	38330	32613	32937	
2939	0	32612	32205	29033	32553	32928	
2940	0	33778	32180	16523	32587	32744	
2941	0	34474	32757	9244	32733	32753	
2942	0	34610	33082	14115	32998	32775	
2943	0	33449	33272	23929	33204	32815	
2944	0	31177	33204	30079	33169	32659	
2945	0	30153	33187	36322	33110	32755	
2946	0	31400	33074	39453	33069	32794	
2947	0	34311	33275	41666	33035	32767	
2948	0	36710	32960	41501	32967	32756	
2949	0	39148	31865	38176	32877	32775	
2950	0	41029	30629	32506	32639	32921	
2951	0	41522	30355	25376	32601	32967	
2952	0	39751	30403	25085	32462	32967	
2953	0	36989	31097	31287	32391	33013	
2954	0	33646	31694	36606	32455	32981	
2955	0	30712	32955	36657	32631	33017	
2956	0	29082	34019	34262	32694	33015	
2957	0	28750	34766	33373	32669	32939	
2958	0	28876	34863	29974	32795	32906	
2959	0	29120	34336	29245	32775	32953	
2960	0	29692	33320	34915	33148	32868	
2961	0	30096	32143	42770	33368	32775	
2962	0	30372	31303	48910	33165	32732	
2963	0	30540	31236	52200	32651	32706	
2964	0	29818	32138	54749	32370	32683	
2965	0	28614	33674	53390	32157	32735	
2966	0	27330	35138	45011	32380	32694	
2967	0	26996	35520	14224	32866	32644	
2968	0	27441	34776	25	33043	32648	
2969	0	28482	33508	16	32924	32731	
2970	0	30002	32510	4045	32594	32647	
2971	0	31664	31660	21529	32487	32726	
2972	0	33657	31352	32761	32676	32888	
2973	0	35335	30983	37581	32916	32866	
2974	0	37774	30505	36219	32873	32851	
2975	0	38964	30655	32587	32775	32947	
2976	0	37350	31769	33116	32609	32903	
2977	0	35291	32861	33789	32484	32927	
2978	0	33488	34120	32129	32573	32728	
2979	0	31264	35243	33315	32514	32795	
2980	0	29648	36443	39636	32370	32688	
2981	0	30948	37074	41554	32479	32689	
2982	0	33576	35937	38441	33082	32728	
2983	0	36006	34571	34941	33602	32818	
2984	0	38210	32831	33772	33151	32948	
2985	0	39400	31003	35299	32687	33002	
2986	0	39074	29414	34725	32638	32943	
2987	0	38288	28467	32425	32903	32966	
2988	0	37244	27591	33818	33420	32991	
2989	0	37068	27945	33918	33261	32963	
2990	0	37239	28962	31361	33149	32947	
2991	0	35996	31211	29641	33062	32879	
2992	0	33819	32341	30065	33065	32915	
2993	0	31737	32564	36124	32785	32948	
2994	0	29825	32716	41001	32735	32955	
2995	0	28224	33139	40939	32696	32909	
2996	0	26572	33367	38998	32714	32873	
2997	0	26616	33218	40581	32583	32936	
2998	0	28249	33746	44486	32492	32832	
2999	0	30928	34850	45943	32300	32865	
3000	0	32377	35280	38194	32275	32704	
3001	0	33496	35767	29068	32534	32648	
3002	0	33506	35966	23114	32572	32662	
3003	0	32398	36203	13779	32696	32629	
3004	0	31648	36015	7721	32851	32713	
3005	0	31562	35753	9280	32829	32930	
3006	0	31086	35483	18121	32855	32963	
3007	0	30895	34246	23216	33082	32967	
3008	0	30481	31957	28002	33046	32839	
3009	0	30366	29066	33465	32975	32889	
3010	0	30320	27070	40636	32851	33042	
3011	0	31020	27022	47785	32829	32927	
3012	0	33818	29592	51130	32580	32952	
3013	0	37540	32121	47455	32672	32762	
3014	0	38434	33447	41479	32909	32676	
3015	0	37741	33451	38111	33015	32806	
3016	0	35826	32995	34038	32948	32758	
3017	0	32180	32386	29145	32868	32871	
3018	0	29123	32469	25555	32738	32826	
3019	0	27676	33135	31130	32902	32812	
3020	0	27072	32989	36956	32882	32863	
3021	0	27505	31469	33641	32848	32903	
3022	0	28360	30144	24742	32967	32967	
3023	0	30025	28993	15900	32671	32982	
3024	0	31152	29282	15029	32239	32979	
3025	0	32412	31014	23305	32195	32888	
3026	0	32842	33486	32792	32282	32902	
3027	0	33117	36427	38679	32474	32944	
3028	0	32248	38504	41424	32568	32969	
3029	0	31196	38831	43035	32721	32886	
3030	0	30909	37416	46641	33101	32862	
3031	0	33157	34502	47352	33345	32710	
3032	0	37185	31416	43911	33029	32711	
3033	0	41778	29767	39124	32571	32702	
3034	0	45368	28831	36175	32523	32706	
3035	0	46178	28630	32997	32755	32784	
3036	0	43521	28667	29795	32953	32918	
3037	0	39204	29338	31217	32903	32967	
3038	0	34462	31011	31328	32831	32957	
3039	0	31040	32494	27752	32941	32833	
3040	0	29626	33426	21621	32996	32800	
3041	0	27809	34272	18801	33088	32711	
3042	0	26350	34541	20869	33558	32696	
3043	0	26296	34799	25789	33255	32765	
3044	0	26905	34239	30112	32993	32716	
3045	0	28107	32469	31199	32868	32709	
3046	0	28624	31416	34759	32411	32890	
3047	0	29452	31047	41727	32349	32930	
3048	0	30834	31941	44167	32670	32910	
3049	0	33084	33280	40663	32632	32789	
3050	0	34192	34124	31348	32413	32813	
3051	0	34536	34326	22378	32534	32727	
3052	0	36290	33877	21658	32634	32803	
3053	0	36834	33337	30703	32775	32912	
3054	0	34400	33046	34399	33107	32886	
3055	0	31840	32666	30338	33203	32951	
3056	0	30530	32502	27401	33381	32932	
3057	0	30215	33362	33558	33161	32839	
3058	0	31984	34280	42982	32762	32726	
3059	0	34962	34866	48514	32617	32695	
3060	0	38035	34964	50816	32733	32733	
3061	0	37930	35064	52011	32675	32745	
3062	0	36152	34643	49479	32559	32925	
3063	0	34344	33556	40661	32702	32885	
3064	0	32432	31992	28774	32796	32914	
3065	0	30648	30392	17920	32652	32760	
3066	0	29733	28761	7234	32772	32804	
3067	0	30253	27846	3873	32711	32896	
3068	0	29744	28063	10799	32689	32899	
3069	0	27243	29581	17790	32769	32935	
3070	0	25442	31616	26696	33004	32986	
3071	0	26208	33648	36786	33211	32906	
3072	0	27710	35030	43079	33039	32692	
3073	0	29907	36119	46305	32878	32932	
3074	0	31916	36359	47162	32417	32973	
3075	0	34134	36368	42468	32297	32886	
3076	0	35946	36147	34052	32600	32903	
3077	0	35909	34989	33141	32767	32801	
3078	0	35465	33649	34878	32575	32729	
3079	0	34364	32805	37758	32441	32675	
3080	0	33648	32455	40753	32701	32753	
3081	0	33735	32451	42774	32872	32861	
3082	0	34216	31715	36446	32661	32931	
3083	0	36170	30392	20722	32669	32880	
3084	0	37767	29317	13258	32728	32837	
3085	0	37946	28499	19007	32741	32805	
3086	0	37540	28274	28100	32835	32793	
3087	0	36954	28859	30180	32939	32775	
3088	0	36350	29696	30855	32910	32771	
3089	0	34143	30717	32427	32861	32979	
3090	0	32443	33029	38467	32736	32876	
3091	0	32105	35080	45883	32556	32912	
3092	0	32851	36519	46506	32603	32927	
3093	0	33892	37246	39278	32628	32885	
3094	0	33569	36947	31783	32698	32940	
3095	0	32447	36758	26499	32859	32936	
3096	0	32117	35911	31276	33146	32949	
3097	0	31070	33236	37741	33150	32861	
3098	0	29877	29699	38141	33316	32846	
3099	0	28370	26331	35287	33385	32740	
3100	0	26331	24099	29516	33264	32775	
3101	0	25696	25749	31525	32833	32865	
3102	0	25896	29488	35671	32455	32962	
3103	0	27660	32762	35474	32244	32719	
3104	0	30347	35335	34723	32179	32733	
3105	0	33850	36088	29700	32469	32976	
3106	0	36257	35956	26166	32736	32962	
3107	0	35296	36210	21792	32569	32842	
3108	0	34064	35952	19230	32641	32927	
3109	0	33154	34649	22476	32839	33016	
3110	0	31566	33260	26640	33014	32995	
3111	0	31076	31999	32351	33009	32848	
3112	0	32984	31643	36144	32941	32775	
3113	0	36690	31764	38699	32821	32745	
3114	0	38658	31392	45488	32866	32736	
3115	0	37994	31224	51472	32881	32722	
3116	0	35768	30951	51951	32760	32839	
3117	0	34618	31301	42177	32613	32921	
3118	0	34928	32981	30253	32421	32925	
3119	0	34028	34300	19997	32310	32957	
3120	0	32577	34921	14990	32438	32845	
3121	0	31250	35301	16991	32663	32731	
3122	0	30010	35009	23174	33010	32681	
3123	0	27510	34802	29865	33183	32717	
3124	0	26013	34729	32664	33120	32659	
3125	0	25763	33714	36730	32921	32751	
3126	0	26521	32463	39045	33002	32903	
3127	0	27666	31293	39407	32958	32918	
3128	0	30236	30882	40101	32733	32868	
3129	0	33895	30797	37341	32449	32919	
3130	0	37974	30914	31840	32233	32755	
3131	0	42557	31076	24930	32377	32733	
3132	0	45154	31358	23943	32527	32900	
3133	0	43632	32127	30707	32651	32934	
3134	0	40898	32727	34337	32867	32987	
3135	0	37378	32833	36497	33331	33042	
3136	0	34938	32868	41580	33636	32959	
3137	0	32739	32349	45767	33178	32829	
3138	0	30466	31419	43151	32931	32822	
3139	0	27724	31532	36769	32739	32731	
3140	0	25632	32402	36661	32470	32745	
3141	0	24722	33509	30032	32184	32665	
3142	0	25568	34454	22469	32080	32634	
3143	0	27558	34797	16496	32526	32687	
3144	0	29828	35231	20940	32800	32768	
3145	0	31924	35335	29253	32859	32897	
3146	0	34066	34293	34565	32575	32836	
3147	0	35072	32263	36770	32581	32740	
3148	0	33561	30524	39080	33156	32726	
3149	0	31761	30493	41718	34019	32732	
3150	0	32404	31964	40898	33623	32740	
3151	0	35054	33564	34657	32632	32788	
3152	0	36284	33942	28889	31815	32711	
3153	0	36073	32574	26762	32168	32765	
3154	0	33623	31408	20352	32889	32658	
3155	0	30252	31481	12904	32807	32764	
3156	0	27595	32025	13578	32683	33013	
3157	0	26760	32824	21764	32775	32977	
3158	0	27154	33165	31300	32751	32916	
3159	0	30814	33004	38343	32630	32839	
3160	0	35704	31912	42051	32572	32775	
3161	0	40211	30930	42992	32668	32688	
3162	0	43368	30151	43032	32573	32857	
3163	0	44020	30769	42311	32563	32945	
3164	0	42360	31926	41954	32175	32813	
3165	0	38983	33673	41881	32308	32705	
3166	0	36358	34838	43245	32652	32704	
3167	0	33718	35218	45853	32870	32788	
3168	0	31021	35174	46514	33131	32949	
3169	0	29727	34887	40605	33443	33065	
3170	0	29064	34660	29382	33424	32939	
3171	0	28550	34160	20284	33396	32898	
