# OpenSignals Text File Format
# {"00:07:80:3B:46:63": {"sensor": ["EMG", "EMG", "EMG", "EMG", "EMG"], "device name": "00:07:80:3B:46:63", "column": ["nSeq", "DI", "CH1", "CH2", "CH3", "CH4", "CH5"], "sync interval": 2, "time": "13:1:35.25", "comments": "", "device connection": "BTH00:07:80:3B:46:63", "channels": [1, 2, 3, 4, 5], "date": "2017-4-28", "mode": 0, "digital IO": [0, 1], "firmware version": 770, "device": "biosignalsplux", "position": 0, "sampling rate": 1000, "label": ["CH1", "CH2", "CH3", "CH4", "CH5"], "resolution": [16, 16, 16, 16, 16], "special": [{}, {}, {}, {}, {}]}}
# EndOfHeader
0	0	33306	32844	38066	32873	32747	
1	0	32050	32919	38851	32725	32687	
2	0	30628	32951	36442	32838	32872	
3	0	29852	32850	26718	32895	32950	
4	0	30194	32807	21703	32930	32863	
5	0	31397	32737	24483	32839	32829	
6	0	33432	32660	26743	32913	32789	
7	0	34119	32487	27977	32847	32775	
8	0	35152	32429	30019	32895	32845	
9	0	35560	32575	32524	32680	32839	
10	0	35025	32530	35331	32711	32789	
11	0	34384	32577	35715	32899	32903	
12	0	34244	32447	33939	32943	32934	
13	0	33195	32469	31564	32979	32985	
14	0	33560	32639	32863	32937	32855	
15	0	34534	32560	32377	32787	32754	
16	0	34463	32737	31333	32472	32757	
17	0	34217	32567	32103	32279	32791	
18	0	34304	32708	34720	32327	32775	
19	0	32680	32557	37292	32605	32747	
20	0	29500	32753	37383	32668	32717	
21	0	28040	32506	36355	33122	32735	
22	0	28825	32583	36279	33107	32871	
23	0	30877	32575	34306	32924	32898	
24	0	32688	32775	32929	32859	32911	
25	0	33781	32548	30922	32677	32898	
26	0	33021	32723	30017	32743	32926	
27	0	31751	32616	31424	32653	32918	
28	0	30874	32551	32931	32759	32755	
29	0	30132	32564	32015	32847	32645	
30	0	29953	32512	30230	32899	32701	
31	0	30786	32619	31723	32752	32887	
32	0	32518	32753	32469	32645	32910	
33	0	35184	32717	33053	32753	32857	
34	0	37659	32707	32604	32726	32806	
35	0	37957	32925	33333	32897	32722	
36	0	36688	32886	32531	32927	32875	
37	0	34242	32927	31657	32795	32861	
38	0	32614	32951	31397	32527	32733	
39	0	31888	32707	31775	32721	32741	
40	0	31597	32386	34045	32876	32720	
41	0	31374	32181	33567	32877	32745	
42	0	30711	32231	32117	32807	32722	
43	0	29083	32231	31402	32827	32763	
44	0	28614	32421	31651	32845	32931	
45	0	29729	32343	32606	32775	32884	
46	0	32584	32621	34742	32850	32931	
47	0	36198	32662	33610	32642	32898	
48	0	38066	32803	33343	32736	32896	
49	0	38788	32662	31730	32694	32943	
50	0	37675	32427	30403	32571	32981	
51	0	35106	32237	30659	32758	32951	
52	0	33116	32541	31586	32811	32919	
53	0	31742	32525	33159	32936	33027	
54	0	30042	32774	35073	32903	32939	
55	0	29933	32963	36897	32772	32952	
56	0	30734	33183	37675	32898	32815	
57	0	31397	33283	38754	32974	32683	
58	0	31619	33435	39123	32883	32711	
59	0	31751	33673	34714	32865	32825	
60	0	32051	33318	28686	33016	32933	
61	0	32348	32891	24893	33014	32922	
62	0	32839	32263	26294	33068	32940	
63	0	33652	31961	30901	32843	32897	
64	0	33737	31777	31275	32613	33003	
65	0	32881	31497	27330	32626	32867	
66	0	32360	31829	28703	32759	32879	
67	0	32596	32067	32432	32859	32828	
68	0	33994	32514	35183	32681	32913	
69	0	34984	32591	35450	32646	32954	
70	0	35070	32558	35783	32646	32927	
71	0	34094	32647	35509	32633	32743	
72	0	33859	32839	32759	32759	32703	
73	0	33106	32973	28673	32861	32685	
74	0	32130	33141	28967	32839	32636	
75	0	31557	33079	31517	32804	32646	
76	0	30002	32893	33982	32845	32742	
77	0	27942	32546	34586	32800	32737	
78	0	27508	32099	35069	32815	32704	
79	0	29307	32127	34566	32753	32855	
80	0	31970	32105	35134	32760	32891	
81	0	34854	32511	34803	32698	32770	
82	0	36006	32602	32823	32775	32761	
83	0	35164	32867	31545	32657	32807	
84	0	33916	32893	31389	32582	32951	
85	0	33084	32991	34176	32604	32775	
86	0	32080	33162	35753	32739	32742	
87	0	31802	32971	37502	32741	32759	
88	0	32868	32869	37587	32876	32749	
89	0	32664	32799	35782	32941	32853	
90	0	31303	32690	31165	32877	32944	
91	0	30994	32683	31143	32822	32930	
92	0	31426	32667	30629	32896	32943	
93	0	32180	32561	27791	32906	32930	
94	0	33474	32741	29309	32709	32833	
95	0	34864	32823	31143	32767	32726	
96	0	35760	32853	27528	32696	32699	
97	0	36546	32813	25858	32890	32903	
98	0	35794	33031	30407	32787	32895	
99	0	34792	32999	31859	32773	32944	
100	0	33664	32857	32711	33106	33007	
101	0	31915	32950	34006	32917	32894	
102	0	30648	32921	35182	32524	32759	
103	0	30433	32655	34893	32283	32719	
104	0	31781	32481	34823	32468	32724	
105	0	32049	32359	35419	32730	32931	
106	0	31843	32555	34557	32764	32875	
107	0	31017	32327	32243	32998	32679	
108	0	30040	32730	31545	32827	32761	
109	0	30254	32591	32543	32863	32923	
110	0	32544	32829	34991	32811	32978	
111	0	35196	32683	35271	32795	32708	
112	0	35898	32642	34178	32909	32711	
113	0	35207	32479	33149	32947	32813	
114	0	34832	32599	32183	32807	32843	
115	0	35148	32287	32606	32914	32983	
116	0	34162	32263	33142	32805	32917	
117	0	33033	32041	32611	32789	32703	
118	0	32069	32102	32287	32845	32676	
119	0	31392	32001	33108	32759	32683	
120	0	30624	32187	33138	32813	32719	
121	0	31130	32511	33121	32703	32815	
122	0	32178	32891	32525	32827	32903	
123	0	34214	32867	30023	32722	32967	
124	0	34648	32888	29106	32839	32941	
125	0	33595	32815	29377	32694	32871	
126	0	33196	32813	31463	32821	32805	
127	0	33166	32882	33338	32966	32735	
128	0	33350	32608	34455	33107	32703	
129	0	32367	32854	34722	32845	32747	
130	0	31970	32823	33566	32687	32775	
131	0	31984	33113	33799	32538	32881	
132	0	31840	33117	35286	32455	32875	
133	0	31084	33142	36841	32577	32861	
134	0	30368	33099	37773	32663	32832	
135	0	30966	33037	36739	32711	32927	
136	0	31224	32731	33238	32838	32959	
137	0	31578	32534	28239	33063	32890	
138	0	32787	32507	28855	32807	32651	
139	0	33898	32272	27861	32903	32689	
140	0	35516	32261	27385	32835	32689	
141	0	36045	32159	28211	32813	32825	
142	0	34920	32301	29883	32827	32914	
143	0	32739	32465	30699	32775	32967	
144	0	31706	32676	29972	32745	32759	
145	0	31528	32775	32759	32673	32832	
146	0	31508	32971	35362	32663	32909	
147	0	31536	33031	36112	32690	32674	
148	0	31767	33069	36125	32747	32903	
149	0	32690	32907	35883	32807	32897	
150	0	33427	32934	34985	32775	32868	
151	0	33261	32801	35470	32749	32967	
152	0	32809	32711	35613	32815	32943	
153	0	32377	32613	33186	32763	32887	
154	0	32178	32477	29723	32903	32733	
155	0	32312	32523	27842	32835	32868	
156	0	33256	32751	28101	32861	32960	
157	0	34347	32743	30111	32817	32833	
158	0	34811	32663	33961	32795	32879	
159	0	33479	32419	37287	32837	32911	
160	0	32738	32367	38181	32775	32963	
161	0	31998	32383	37571	32723	32983	
162	0	31608	32105	36071	32822	32953	
163	0	31229	32399	32497	32827	32893	
164	0	31815	32449	29813	32569	32711	
165	0	32796	32667	30031	32671	32795	
166	0	33334	32902	30422	32506	32931	
167	0	34980	32686	30936	32761	32855	
168	0	35312	32634	33335	32889	32767	
169	0	34427	32619	35023	32851	32939	
170	0	33138	32805	33729	32757	32883	
171	0	32274	32623	33738	32855	32851	
172	0	31870	32914	31677	32808	32772	
173	0	32142	32711	27585	32815	32799	
174	0	31884	32679	26007	32739	32767	
175	0	31023	32775	29935	32819	32730	
176	0	30657	32535	33195	32711	32845	
177	0	30293	32641	34418	32892	32902	
178	0	30727	32742	34693	32775	32937	
179	0	31547	33011	34986	32801	32902	
180	0	32198	32880	35475	32756	32851	
181	0	31558	32979	33531	32837	32855	
182	0	31860	32925	30767	32759	32891	
183	0	31910	33007	30407	32890	32967	
184	0	33780	32923	31085	32799	32969	
185	0	37361	32765	31779	32899	32963	
186	0	39906	32723	32231	32747	32966	
187	0	39485	32608	31487	32903	32991	
188	0	35805	32503	33007	32750	32936	
189	0	31600	32301	35360	32856	32902	
190	0	29984	32175	37211	32689	32934	
191	0	30196	32007	37858	32677	32882	
192	0	31126	32013	37573	32703	32967	
193	0	31047	31930	35335	32738	32925	
194	0	31888	32275	31767	32824	32979	
195	0	33065	32233	27407	32890	32989	
196	0	34051	32725	26457	32839	32975	
197	0	35032	32854	30365	32827	32899	
198	0	33956	32911	35215	32818	32746	
199	0	31736	32833	36691	32739	32691	
200	0	30628	32707	33909	32748	32809	
201	0	29624	33071	33085	32664	32681	
202	0	29893	33138	30394	32749	32749	
203	0	32754	32999	28250	32704	32784	
204	0	36152	32789	29207	32854	32869	
205	0	38123	32720	32139	32646	32967	
206	0	38208	32511	34379	32864	32967	
207	0	35405	32656	34194	32794	32922	
208	0	31522	32947	33040	32879	32829	
209	0	29381	32770	33103	32805	32851	
210	0	29329	32829	33313	32909	32833	
211	0	30176	32549	30427	32997	32895	
212	0	31616	32448	27526	33071	32991	
213	0	33053	32327	29728	32519	32881	
214	0	33126	32443	33722	32217	32896	
215	0	32939	32909	35494	32471	33003	
216	0	32932	33194	36475	32637	32999	
217	0	32262	33393	37014	32709	32935	
218	0	32209	32931	36516	32807	32911	
219	0	31821	32825	35219	32936	32902	
220	0	30130	32297	34637	32963	32839	
221	0	29766	32109	35847	32910	32747	
222	0	30908	32216	34918	32858	32735	
223	0	32873	32093	32594	32823	32659	
224	0	34452	32173	32950	32741	32720	
225	0	34702	31747	31542	32807	32743	
226	0	34624	31821	28306	32738	32699	
227	0	35315	31981	27556	32801	32809	
228	0	36509	32301	25563	32613	32843	
229	0	37465	32643	25091	32793	32910	
230	0	36359	32851	28260	32687	32999	
231	0	33257	33306	33248	32803	32910	
232	0	30234	33415	37440	32726	32875	
233	0	28038	33661	38155	32809	32941	
234	0	27374	33427	36121	32805	32921	
235	0	29217	33381	32939	32775	32989	
236	0	31790	32833	33282	32812	32941	
237	0	34880	32162	33123	32717	32972	
238	0	35776	31653	32647	32927	32941	
239	0	34052	31323	35643	32923	32919	
240	0	33415	31771	38471	32801	32948	
241	0	32272	32101	39481	32681	32933	
242	0	31409	32908	38719	32647	32907	
243	0	30348	33079	33935	32724	32908	
244	0	29346	33503	27010	32571	32933	
245	0	30781	33334	25215	32775	32935	
246	0	32133	33503	26949	32533	32966	
247	0	32653	33312	29011	32796	32909	
248	0	32000	33233	27187	32823	32744	
249	0	30604	32723	26701	32867	32739	
250	0	29770	32421	28326	32879	32718	
251	0	30662	31963	33135	32813	32706	
252	0	32120	31865	37999	32858	32767	
253	0	36530	31995	41504	32835	32772	
254	0	40168	32538	42371	33077	32722	
255	0	38906	32939	40135	33005	32679	
256	0	37545	33337	35981	32844	32826	
257	0	37446	33671	34155	32751	32974	
258	0	36716	33549	30533	32716	32887	
259	0	35568	33170	26483	32809	32813	
260	0	33913	32815	25282	32677	32775	
261	0	30988	32301	24692	32625	32647	
262	0	27522	31808	25164	32883	32834	
263	0	26774	31419	28879	32825	32775	
264	0	28555	31570	33055	32775	32863	
265	0	31689	32045	35552	32758	32933	
266	0	34382	32321	36846	32632	32977	
267	0	34788	33003	39057	32551	33016	
268	0	34145	33653	38179	32632	33010	
269	0	31948	33775	35309	32683	32762	
270	0	28513	33223	34135	32937	32691	
271	0	27122	32902	31272	33202	32748	
272	0	28132	32537	31308	32869	32885	
273	0	31664	32557	30942	32808	32927	
274	0	35213	32578	32402	32644	32936	
275	0	38512	32830	35935	32727	32883	
276	0	38421	32859	35133	32679	32825	
277	0	35987	32909	32651	32696	32797	
278	0	34140	33095	30053	32743	32809	
279	0	32476	32755	29607	32690	32742	
280	0	31030	32562	28383	32843	32734	
281	0	31045	32323	29402	32797	32751	
282	0	30800	32526	33153	32827	32697	
283	0	30280	32809	33788	32675	32733	
284	0	32041	33201	33792	32813	32839	
285	0	34085	33407	34779	32849	32809	
286	0	34621	33330	35323	32953	32850	
287	0	33353	33165	34548	33219	32845	
288	0	31070	32495	30747	33060	32717	
289	0	29961	31837	33120	32898	32725	
290	0	31010	31303	35571	32531	32685	
291	0	32274	31194	35803	32628	32791	
292	0	32853	31781	35447	32679	32907	
293	0	32487	32636	32511	32455	32979	
294	0	33016	33197	29216	32199	32932	
295	0	34066	33639	28761	32351	32907	
296	0	35032	33503	30685	32891	32775	
297	0	35564	33065	32677	32711	32677	
298	0	35515	32847	35445	32775	32677	
299	0	33739	32717	38547	33168	32850	
300	0	33602	32528	34816	33223	32733	
301	0	33252	32090	31795	32991	32933	
302	0	32909	31807	35097	32883	32918	
303	0	31656	31977	35475	32507	32741	
304	0	30274	32123	30211	32577	32672	
305	0	29676	32229	26567	32611	32827	
306	0	30126	31787	28253	32803	32958	
307	0	30719	31894	32452	32825	32994	
308	0	32101	31936	34079	32903	33021	
309	0	32578	32421	29639	32834	32983	
310	0	31582	32610	29351	32915	32976	
311	0	32124	33285	29952	32587	32957	
312	0	33816	33875	33328	32626	32925	
313	0	36728	34170	35893	32630	32860	
314	0	40967	34016	38235	32871	32849	
315	0	41984	33740	38672	33015	32833	
316	0	38919	33346	34075	32929	32813	
317	0	35186	32742	27680	32775	32763	
318	0	31724	32037	25596	32621	32789	
319	0	29165	31493	29949	32719	32853	
320	0	27576	31540	39153	32690	32820	
321	0	27304	32065	39657	32685	32925	
322	0	28406	32410	36837	32663	32861	
323	0	29160	32930	30279	32685	32806	
324	0	29872	33203	28589	32803	32795	
325	0	30363	33273	30584	32837	32659	
326	0	30995	33122	28230	32918	32757	
327	0	30041	33175	26585	32833	32950	
328	0	28367	32933	29443	33127	32871	
329	0	28676	32557	32371	32952	32935	
330	0	31727	32218	34258	32727	32902	
331	0	35965	32456	33586	32634	32833	
332	0	37880	32885	31200	32451	32727	
333	0	38689	33181	29661	32560	32645	
334	0	39209	33044	30167	32553	32809	
335	0	38626	32979	31585	32628	32877	
336	0	37477	32858	33836	32709	32952	
337	0	35986	32635	36787	32813	32907	
338	0	34550	32753	40038	32659	32947	
339	0	33160	32721	40766	32551	33009	
340	0	30679	32466	38627	32720	32969	
341	0	29131	32627	36854	32903	32895	
342	0	29084	32899	36022	32955	32933	
343	0	29543	32306	34307	33207	32955	
344	0	30181	32077	34117	33042	32833	
345	0	31330	31653	32163	32898	32799	
346	0	32022	31710	32479	32737	32670	
347	0	31565	32199	33021	32797	32695	
348	0	31094	32868	29685	32972	32699	
349	0	30537	33111	24928	32833	32701	
350	0	29554	32999	24841	32860	32729	
351	0	30886	32178	26025	32835	32774	
352	0	33490	31312	30215	32947	32677	
353	0	34823	30855	34583	32898	32691	
354	0	34929	31580	36702	32733	32721	
355	0	34502	32724	36991	32824	32868	
356	0	31680	34208	37725	32810	32981	
357	0	29480	35371	36666	32621	32950	
358	0	27482	35557	36499	32662	33008	
359	0	26871	34595	35965	32932	32935	
360	0	30528	33328	26758	32948	32902	
361	0	34490	32620	18977	32925	32992	
362	0	38469	32229	16934	32626	32903	
363	0	40159	31751	25328	32725	32963	
364	0	41454	31525	34240	32723	32955	
365	0	42006	31311	38075	33063	32950	
366	0	39696	30981	35280	33055	32862	
367	0	35955	30910	33543	32861	32775	
368	0	33654	31147	34759	32736	32690	
369	0	31559	31634	37083	32667	32723	
370	0	30050	32175	40248	32686	32753	
371	0	28850	32871	39273	32465	32671	
372	0	29170	33746	35542	32249	32791	
373	0	28765	34639	30351	32821	32794	
374	0	29413	35140	33913	32839	32774	
375	0	31345	34860	39862	32804	32706	
376	0	33976	34445	42375	32611	32749	
377	0	35856	33435	40827	32323	32773	
378	0	36224	32231	35874	32425	32705	
379	0	34082	31331	27778	32853	32691	
380	0	30941	31133	21855	33109	32713	
381	0	29766	30953	16957	33164	32733	
382	0	29784	30951	15766	33235	32819	
383	0	29864	31867	24274	32967	32839	
384	0	30660	33129	29142	32847	32839	
385	0	30178	34175	34386	32654	32886	
386	0	30306	34279	37383	32568	32839	
387	0	30769	34311	35897	32519	32975	
388	0	31301	33656	35760	32415	32955	
389	0	31547	32546	34624	32551	32876	
390	0	32329	31473	32945	32677	32921	
391	0	35752	30955	32951	33285	32935	
392	0	39128	31119	34392	33179	32935	
393	0	41024	31575	35635	32979	32959	
394	0	39324	31975	36730	32912	32997	
395	0	36850	32705	36581	32835	32993	
396	0	34072	33530	37142	32746	32955	
397	0	31326	34013	37501	32483	32898	
398	0	28113	34297	38919	32495	32765	
399	0	25808	34424	38628	32470	32719	
400	0	24591	34423	36295	32425	32775	
401	0	25435	34823	33151	32529	32829	
402	0	28836	35410	31175	32903	32805	
403	0	33634	35347	29454	33028	32771	
404	0	38241	34616	23778	33008	32718	
405	0	39737	33458	24639	32872	32803	
406	0	37584	31777	30619	32784	33027	
407	0	34030	29767	32792	32903	33049	
408	0	32719	28477	29368	32803	32801	
409	0	31954	28037	30330	32838	32767	
410	0	32154	28308	35005	32806	32730	
411	0	34049	29410	35727	32845	32722	
412	0	35116	30863	35071	32975	32734	
413	0	34330	32234	32551	33035	32850	
414	0	30954	33095	29881	32797	32789	
415	0	27572	33938	26655	32705	32914	
416	0	25164	34386	26112	32323	32920	
417	0	25494	34767	28361	32500	33010	
418	0	27491	35200	33496	32403	32745	
419	0	28732	35170	37855	32569	32653	
420	0	29965	34695	37079	32698	32645	
421	0	31389	33676	34791	32871	32654	
422	0	35606	32371	35967	32990	32688	
423	0	40082	31808	38248	32793	32685	
424	0	41072	32263	42023	32740	32746	
425	0	39517	32591	42263	32951	32742	
426	0	37448	33218	39253	32955	32685	
427	0	37028	33337	36679	33045	32651	
428	0	39738	33108	34168	33095	32739	
429	0	40632	32646	31784	32871	32642	
430	0	38064	32001	30279	32441	32807	
431	0	34269	31437	28537	32490	32879	
432	0	29512	30209	17828	32628	32774	
433	0	26929	29989	7022	32800	32733	
434	0	26724	29950	6333	33176	32736	
435	0	27681	30742	18593	32869	32685	
436	0	30180	31610	30482	32766	32682	
437	0	32148	32624	38834	33104	32812	
438	0	31867	33203	42963	33024	32942	
439	0	32690	33163	43559	32654	32935	
440	0	32578	33095	41887	32759	32961	
441	0	30939	32699	42645	32655	32876	
442	0	29981	32775	39867	32599	32775	
443	0	28908	32995	39212	32530	32630	
444	0	28064	33647	41044	32455	32671	
445	0	27925	34069	37606	32466	32759	
446	0	28328	34919	30832	32645	32865	
447	0	30262	35335	23909	32860	32930	
448	0	32768	35487	23107	32797	32880	
449	0	36045	35074	27641	32976	32775	
450	0	39431	34371	30034	32797	32839	
451	0	41121	33011	29917	32873	32912	
452	0	40384	31746	30977	32989	32820	
453	0	40455	30969	35514	32921	32873	
454	0	39980	30269	42160	32981	32920	
455	0	38784	30768	44551	32686	32871	
456	0	36487	31455	45280	32577	32767	
457	0	35015	31623	42157	32694	32746	
458	0	31815	31330	39850	32736	32823	
459	0	28078	31453	35188	32549	32966	
460	0	24922	32142	24648	32443	32996	
461	0	22922	32550	14159	32628	32954	
462	0	22181	33385	14383	32533	32953	
463	0	23540	33620	23895	33059	32848	
464	0	27292	34022	30706	32943	32728	
465	0	30813	34533	33799	32839	32696	
466	0	32997	34823	34997	32863	32727	
467	0	34589	34637	36918	32907	32764	
468	0	35420	33670	37177	33216	32788	
469	0	36556	32012	37971	33492	32868	
470	0	38203	31078	41991	33398	32911	
471	0	37456	31206	38763	32877	32910	
472	0	35627	32155	31083	32465	32912	
473	0	31997	32834	27481	32553	32853	
474	0	29882	33015	28758	32598	32839	
475	0	29928	31897	23867	32797	32750	
476	0	31945	30967	16894	32836	32715	
477	0	31686	30569	23096	32837	32724	
478	0	33348	30642	26568	33013	32733	
479	0	37461	31992	34755	32954	32756	
480	0	40153	33538	41955	32736	32722	
481	0	40196	34835	43430	32386	32693	
482	0	37415	35330	40610	32656	32711	
483	0	33988	35419	38666	32607	32747	
484	0	31862	34759	36078	32595	32863	
485	0	28838	34149	35556	32590	32737	
486	0	26240	33614	37476	31795	32775	
487	0	25115	33123	37090	32009	32819	
488	0	26477	32821	37295	32439	32924	
489	0	29869	32337	38060	32736	32907	
490	0	33160	31096	41638	32832	32818	
491	0	36199	30147	40816	32909	32741	
492	0	35452	29422	30599	33076	32763	
493	0	34781	29082	19571	33498	32934	
494	0	33636	28379	15761	33269	32965	
495	0	33442	28749	20861	33073	32899	
496	0	31760	30070	28579	32933	32923	
497	0	30134	31297	33274	32690	32891	
498	0	29490	33471	33940	32687	32854	
499	0	27726	34860	33044	32747	32711	
500	0	28635	36111	28856	33031	32680	
501	0	32477	36610	29490	32664	32775	
502	0	39608	37534	35316	32371	32834	
503	0	43120	37947	38849	32360	32937	
504	0	42979	37170	39190	32711	32902	
505	0	39908	34792	31102	33472	32898	
506	0	34544	32221	21600	33497	32744	
507	0	31866	30281	25037	33565	32772	
508	0	31330	29683	31233	33223	32767	
509	0	31369	30114	32939	32827	32797	
510	0	32323	31687	35932	32528	32863	
511	0	32094	33033	41460	32672	32805	
512	0	29563	32907	43947	32641	32685	
513	0	27631	31868	41203	32625	32647	
514	0	25992	30338	34113	32652	32739	
515	0	27171	29626	22326	32592	32795	
516	0	28633	29961	24552	32509	32816	
517	0	29940	31328	36271	32555	32850	
518	0	31490	33174	43015	32595	32903	
519	0	33629	34218	45733	33140	32907	
520	0	35828	34656	41023	33152	32870	
521	0	37209	34384	28679	32836	32868	
522	0	37867	33613	18674	32533	32889	
523	0	37593	32425	18898	32466	32707	
524	0	36856	31652	27412	32672	32963	
525	0	34360	30973	33930	32816	32727	
526	0	31136	30068	30650	32767	32691	
527	0	27840	30499	23747	32593	32940	
528	0	23976	31083	26298	32467	32883	
529	0	23257	32057	35817	32467	32787	
530	0	26384	33388	39551	32426	33038	
531	0	29808	34728	37217	32458	32889	
532	0	34377	35393	34273	32489	32847	
533	0	38598	36216	39238	32548	33009	
534	0	39034	36583	43862	32681	32763	
535	0	38223	36368	45063	32971	32690	
536	0	35283	35995	35842	33008	32845	
537	0	33232	34670	23542	32990	32921	
538	0	32160	33490	21385	33063	32767	
539	0	32382	31707	24512	32815	32925	
540	0	32898	30464	31838	33036	32879	
541	0	34348	29432	40279	33041	32702	
542	0	36231	28916	44003	32970	32726	
543	0	38633	29787	38298	32898	32904	
544	0	41912	30388	22915	33028	32984	
545	0	42089	30847	14526	32997	32792	
546	0	37626	31416	22338	32918	32859	
547	0	34152	32006	32425	32933	32896	
548	0	31648	32912	35775	32787	32943	
549	0	30536	33784	34183	32683	32739	
550	0	31184	34198	26916	32789	32725	
551	0	30294	34561	25352	32844	32751	
552	0	28212	34400	28874	32740	32884	
553	0	25805	33797	34729	32217	32958	
554	0	23686	32836	37165	32110	32945	
555	0	23366	32085	38725	32176	32863	
556	0	24365	31583	41479	32561	32829	
557	0	25095	31858	45974	33101	32805	
558	0	26498	32204	47810	32606	32909	
559	0	29241	32749	46595	32723	32954	
560	0	34939	33005	45197	32806	32981	
561	0	39816	33632	38108	32557	32973	
562	0	42448	33849	25016	32626	32967	
563	0	41776	33645	26088	32861	32882	
564	0	40007	32836	28751	32904	32939	
565	0	39048	31979	30791	33048	32761	
566	0	37413	31907	24776	32910	32751	
567	0	35074	32560	21440	33059	32841	
568	0	32646	32939	22142	32963	32909	
569	0	30078	33137	23389	33080	32899	
570	0	27516	33261	29127	32809	32959	
571	0	24544	32935	34307	32413	32865	
572	0	25441	33031	34519	32575	32696	
573	0	26528	32443	32743	32605	32757	
574	0	27139	31567	34783	32571	32674	
575	0	28947	31047	36422	32635	32798	
576	0	32594	32159	31121	33063	32807	
577	0	34297	33095	28695	33492	32948	
578	0	34602	33775	30246	33447	33003	
579	0	34994	34852	33104	32665	32873	
580	0	35627	35888	38617	32297	32766	
581	0	37458	36411	41018	32603	32909	
582	0	40997	35565	37309	32541	32843	
583	0	41991	33662	35710	32774	32723	
584	0	37337	31205	34060	32775	32754	
585	0	31186	29665	28180	32829	32669	
586	0	27859	28882	26149	32820	32753	
587	0	27136	29167	28523	32938	32866	
588	0	26073	29651	32502	33094	32815	
589	0	25748	30383	34272	33135	32821	
590	0	28332	30549	39344	33015	32877	
591	0	32200	30994	42570	32629	32711	
592	0	35896	32432	44976	32549	32740	
593	0	40824	33374	47623	32386	32722	
594	0	42892	32961	42290	32312	32795	
595	0	41571	32713	27669	32568	32697	
596	0	37768	32664	20009	32676	32752	
597	0	33664	32805	14392	32991	32775	
598	0	30486	33755	12096	32728	32775	
599	0	29581	33782	15405	32423	32795	
600	0	29739	34021	21631	32552	32684	
601	0	28544	34065	30627	32577	32701	
602	0	27689	34311	36953	32641	32731	
603	0	27344	34199	40397	32909	32832	
604	0	27902	33746	41842	33357	32768	
605	0	29283	32757	39559	33144	32715	
606	0	31200	32190	31471	33056	32722	
607	0	33348	31853	30671	33154	32699	
608	0	37450	32681	35030	32733	32765	
609	0	40775	33789	39792	32880	32738	
610	0	42364	33302	42862	32833	32676	
611	0	40681	31674	46087	32605	32706	
612	0	37371	30102	44174	32719	32757	
613	0	34616	29782	39012	32547	32788	
614	0	32601	30428	30467	32402	32709	
615	0	30672	31962	29031	32642	32700	
616	0	31052	32993	30141	32723	32741	
617	0	30580	33414	27218	32905	32745	
618	0	29954	33727	26845	32813	32675	
619	0	27069	33320	25370	32848	32720	
620	0	25876	32926	26470	32707	32899	
621	0	25095	33389	28350	32445	32962	
622	0	25561	34076	28242	32699	32801	
623	0	29016	34328	25131	32671	32716	
624	0	32671	34855	22761	32823	32937	
625	0	35568	36132	26134	33073	32995	
626	0	35876	36723	35881	33241	32877	
627	0	35624	36544	38131	33117	32805	
628	0	33782	35453	36493	33012	32685	
629	0	29484	34440	40932	32341	32686	
630	0	27066	34311	41735	32257	32722	
631	0	28950	33462	38266	32491	32812	
632	0	34626	32203	30562	32907	32866	
633	0	38889	30820	29242	32862	32967	
634	0	40692	29085	34576	32914	32918	
635	0	41398	28519	35965	32762	32966	
636	0	39918	27533	36511	32770	32914	
637	0	38464	28006	30195	32641	32760	
638	0	36618	28999	25090	32749	32731	
639	0	35028	30278	25526	32871	32883	
640	0	34164	31299	29202	32798	32903	
641	0	33609	31367	35472	32882	32853	
642	0	31348	30869	42104	33076	32878	
643	0	30504	30311	44393	33106	32916	
644	0	29216	29795	45511	33223	32939	
645	0	28243	30887	44623	32859	32931	
646	0	28978	32524	34668	32536	32889	
647	0	30842	34665	17304	32907	32902	
648	0	31528	36018	11391	32903	32921	
649	0	32704	35563	22091	33133	32688	
650	0	33246	34555	29496	33201	32733	
651	0	34322	33419	28643	33015	32726	
652	0	33411	33283	26595	32911	32854	
653	0	30820	34933	32272	32828	32920	
654	0	27969	36295	37448	32733	32968	
655	0	24820	36342	40489	32438	32932	
656	0	23220	36034	41414	32383	32858	
657	0	23162	35143	39963	31851	32799	
658	0	25366	33479	39697	32182	32733	
659	0	30528	33184	39779	32595	32718	
660	0	36999	33136	35673	33080	32679	
661	0	42796	32739	36772	33043	32822	
662	0	44234	31131	37606	32730	32935	
663	0	40760	29563	35768	33330	32983	
664	0	36152	27679	35015	33383	32914	
665	0	33881	26002	32467	33164	32930	
666	0	31246	25187	27358	32251	32877	
667	0	28913	25751	24315	32233	32723	
668	0	28957	27446	29975	32020	32701	
669	0	30252	31237	32688	32549	32765	
670	0	31756	34881	28111	33187	32758	
671	0	33122	37908	20699	32981	32730	
672	0	35395	39537	20274	32556	32693	
673	0	37244	40139	22053	32352	32775	
674	0	39992	40300	19564	32436	32900	
675	0	41652	38653	24100	32531	32969	
676	0	38810	35280	37940	32833	32912	
677	0	35628	31865	45218	32967	32839	
678	0	34624	29244	42658	32853	32685	
679	0	32819	28481	38618	32758	32667	
680	0	30008	29306	32605	33007	32666	
681	0	30087	30697	32606	33171	32704	
682	0	30373	31170	37074	33190	32749	
683	0	28477	31037	43944	33200	32937	
684	0	25060	30116	46764	33328	32962	
685	0	25372	29311	43798	33255	32959	
686	0	27524	29119	35352	32964	32853	
687	0	30060	30276	28197	32749	32797	
688	0	31040	31579	24635	32509	32756	
689	0	30930	33314	27941	32262	32829	
690	0	30862	34543	28466	32135	32831	
691	0	31952	35451	24058	32223	32743	
692	0	33789	36330	27634	32577	32805	
693	0	38056	37344	31922	32617	32960	
694	0	41572	37655	32289	33024	32950	
695	0	41292	37600	29531	32967	32942	
696	0	39969	37275	29368	32799	32967	
697	0	39072	36231	28898	32716	32943	
698	0	36034	34787	34376	32761	32941	
699	0	32052	32352	38042	32929	32963	
700	0	29162	30247	36971	32884	32917	
701	0	26712	29549	31604	32908	32859	
702	0	24944	30371	28899	32861	32873	
703	0	22843	31846	29898	32762	32878	
704	0	22823	32966	36776	32940	32806	
705	0	22673	33796	43345	33065	32775	
706	0	23603	33541	42263	32941	32765	
707	0	28332	32717	38946	32573	32807	
708	0	35288	32290	29310	32656	32736	
709	0	42072	32032	22520	32942	32795	
710	0	47576	31690	22759	32699	32695	
711	0	49468	31383	29476	32881	32688	
712	0	47364	31345	38555	32827	32667	
713	0	41888	30709	42994	32807	32694	
714	0	37131	30487	46272	32672	32696	
715	0	32734	30791	48165	32706	32722	
716	0	28486	31539	41491	32634	32666	
717	0	25193	32192	24886	32717	32896	
718	0	23132	32714	12813	33030	32991	
719	0	22888	33191	12229	33003	32912	
720	0	25708	33240	23949	33043	32938	
721	0	29096	32363	30598	33077	32966	
722	0	30855	31888	29334	32773	32929	
723	0	31330	32263	29868	32623	32831	
724	0	29885	33647	34800	32415	32733	
725	0	30211	35544	41280	32440	32860	
726	0	33618	36419	41454	32274	32899	
727	0	38594	35488	33829	32124	32721	
728	0	40904	33676	27130	32361	32820	
729	0	39495	32283	24325	32687	32720	
730	0	37000	31995	28159	33119	32751	
731	0	34738	32275	29235	33205	32809	
732	0	31528	33360	35096	33509	32775	
733	0	30877	33275	40168	33274	32807	
734	0	31506	31533	44986	33134	32730	
735	0	32636	30749	44311	32867	32685	
736	0	33796	30359	38128	32775	32675	
737	0	34375	30925	33515	32813	32720	
738	0	34379	30803	35569	32692	32879	
739	0	32552	31017	39680	32687	32943	
740	0	29516	31833	40927	32898	32896	
741	0	25317	32768	38747	32890	32702	
742	0	21069	33210	33736	32765	32741	
743	0	20882	33502	28666	32869	32762	
744	0	24740	33037	22790	32925	32751	
745	0	30369	31344	19114	33149	32731	
746	0	38407	29869	15797	32617	32745	
747	0	45417	30317	12920	32662	32838	
748	0	47340	31443	15079	32603	32672	
749	0	43908	32279	23880	32957	32768	
750	0	38682	32550	33917	32890	32744	
751	0	33397	32557	42726	32871	32896	
752	0	30474	32916	48169	32684	33000	
753	0	27846	33348	52122	32471	32863	
754	0	26954	33669	52662	32457	32897	
755	0	28880	34330	44690	32479	32818	
756	0	32952	34586	35875	32393	32720	
757	0	36564	34073	31917	32520	32704	
758	0	38979	33938	28825	32504	32728	
759	0	38158	34454	19873	32756	32722	
760	0	34364	35160	16714	32926	32717	
761	0	29302	35514	24357	32582	32843	
762	0	24877	35847	29427	32941	32792	
763	0	23275	35384	25559	32925	32790	
764	0	25769	34208	28018	33040	32708	
765	0	30936	32493	37710	32977	32725	
766	0	36416	30628	40505	32993	32784	
767	0	39634	29732	33338	32958	32928	
768	0	41720	29507	30453	32859	32944	
769	0	42582	29857	35515	32848	32987	
770	0	41886	30475	39023	33011	32923	
771	0	39096	30925	38143	32601	32791	
772	0	34929	31746	38096	32873	32789	
773	0	31044	32616	37738	33042	32942	
774	0	26689	33544	37607	32571	32902	
775	0	24133	34528	36957	32455	32895	
776	0	22375	35112	32646	32510	32762	
777	0	22082	34631	30247	32630	32734	
778	0	23078	33622	30671	32754	32942	
779	0	23627	32926	34873	32955	32966	
780	0	24346	32765	34546	32983	32961	
781	0	28242	32528	35024	32843	32884	
782	0	36233	32813	40997	32770	32850	
783	0	42406	32588	33297	32587	32845	
784	0	44697	32543	17828	32752	32881	
785	0	43488	33231	15453	32620	32944	
786	0	40104	33351	17595	32658	32957	
787	0	36157	33086	18605	32987	32865	
788	0	34864	32775	23623	32773	32984	
789	0	33799	32974	32224	32615	32682	
790	0	29768	33455	38488	32464	32775	
791	0	25548	34083	40195	32436	32863	
792	0	23807	34279	37287	32675	32945	
793	0	23982	33490	37975	32758	32687	
794	0	27076	31916	43427	32790	32742	
795	0	34306	31308	51672	32712	32932	
796	0	41648	31502	56867	32583	32770	
797	0	43380	31411	53108	32743	32793	
798	0	41952	30704	42349	32879	32922	
799	0	39393	31141	31293	33104	32684	
800	0	34384	31852	12706	32936	32940	
801	0	29639	32400	2160	32868	32813	
802	0	28292	33210	15682	33120	32827	
803	0	29232	33741	27323	32995	32943	
804	0	30125	32756	22913	32852	32687	
805	0	31302	31001	20007	32540	32926	
806	0	32989	29143	25497	32742	32770	
807	0	34117	27795	35809	32753	32845	
808	0	36666	28182	41725	33123	32959	
809	0	37702	29383	42517	33287	32746	
810	0	38115	31175	35207	33174	32762	
811	0	36174	32771	30150	32811	32884	
812	0	32321	33719	34455	32821	32892	
813	0	29522	34614	37584	32877	32683	
814	0	28288	35544	42370	32696	32711	
815	0	28160	36604	48211	32405	32910	
816	0	29102	37339	48823	32386	32903	
817	0	28806	37647	43949	32333	32740	
818	0	27291	36429	39686	32309	32711	
819	0	27352	34992	24932	32348	32956	
820	0	28992	34068	3612	32667	32963	
821	0	30890	33318	3081	32855	32833	
822	0	31939	32835	11940	33166	32722	
823	0	32940	31979	27972	33499	32868	
824	0	36906	32086	35867	33344	32942	
825	0	41104	31955	39079	33065	32949	
826	0	43172	31763	39135	32912	32711	
827	0	41360	31215	39275	32919	32843	
828	0	37448	30390	41301	33011	32999	
829	0	33669	29363	41734	32843	32769	
830	0	30864	28115	41593	32732	32869	
831	0	29408	27431	42920	32616	33015	
832	0	29178	27351	43743	32483	32869	
833	0	29423	28353	40246	32577	32741	
834	0	29586	30011	36057	32751	32755	
835	0	30320	31985	35307	32699	32692	
836	0	29537	33427	36176	32351	32937	
837	0	28012	35634	33879	32382	32774	
838	0	26464	37956	27632	32969	32860	
839	0	29048	39296	16774	32568	32960	
840	0	33920	38995	12646	32702	32888	
841	0	39312	37088	26028	32596	32813	
842	0	42434	35312	38962	32888	32882	
843	0	42944	33618	38714	33225	32955	
844	0	41972	31983	29051	33366	32769	
845	0	38919	30759	28410	33799	32775	
846	0	35631	30009	33765	32991	32834	
847	0	31993	29888	35411	31681	32720	
848	0	26610	30876	29362	32028	32763	
849	0	22304	32616	21615	32456	32848	
850	0	18456	32910	24322	32594	32934	
851	0	18064	32560	38584	32392	32863	
852	0	21089	32511	46115	32665	32847	
853	0	24240	32508	42832	33065	32889	
854	0	29762	33153	33018	32922	32746	
855	0	36063	34340	26864	32743	33025	
856	0	40605	34498	26671	32708	32720	
857	0	43936	34295	26665	32669	32849	
858	0	42588	33251	29237	32643	32941	
859	0	39145	31887	29823	32945	32770	
860	0	36407	30246	34630	33287	32973	
861	0	34104	28705	36423	33351	32690	
862	0	32804	28374	36295	33190	32879	
863	0	33866	29971	31542	32913	32848	
864	0	33707	31694	31353	32662	32765	
865	0	33020	33912	38512	32469	32996	
866	0	33838	36127	45732	32308	32717	
867	0	34066	37816	49446	32199	32930	
868	0	31310	38402	48511	32161	32833	
869	0	28147	37538	44641	32424	32761	
870	0	26789	36416	33384	32668	32992	
871	0	29264	34920	8460	32354	32740	
872	0	33068	33377	1171	31922	32924	
873	0	35960	31361	4595	32640	33016	
874	0	36920	29900	25234	33256	32713	
875	0	36489	29447	38726	33304	32976	
876	0	34344	29782	37459	33179	32711	
877	0	33450	30381	38855	32882	32813	
878	0	33560	31175	47758	32784	32804	
879	0	34029	32051	50529	33003	32890	
880	0	33480	32416	41956	33195	32951	
881	0	32464	31682	32261	33240	32749	
882	0	29646	30197	22604	33234	32946	
883	0	28517	29180	22308	33303	32705	
884	0	28757	28930	26704	33082	32914	
885	0	28996	29264	33636	32630	32869	
886	0	29928	30555	42523	32502	32727	
887	0	31716	31904	39073	32583	32962	
888	0	32699	32668	28498	32480	32765	
889	0	34008	33637	18936	32450	32838	
890	0	34386	33902	23626	32369	32933	
891	0	34123	33951	32083	32630	32666	
892	0	35438	34265	38197	32739	32906	
893	0	36928	34929	39288	32734	32749	
894	0	37439	35603	39510	32593	32859	
895	0	37425	36478	40118	32613	32933	
896	0	37597	36513	42113	32674	32775	
897	0	35361	36262	37467	32607	32856	
898	0	31364	35177	29774	32664	32850	
899	0	26484	33205	26861	32973	32839	
900	0	24157	31214	31751	33004	32907	
901	0	23972	30291	37668	32647	32928	
902	0	25731	30249	34099	32903	32943	
903	0	28835	31337	26200	32905	33006	
904	0	32439	33784	22172	32653	32925	
905	0	36522	36718	23667	32654	32871	
906	0	37835	38919	24882	32583	32763	
907	0	37476	38599	30119	33065	32677	
908	0	36962	35889	34810	33491	32750	
909	0	36124	30429	42808	33506	32664	
910	0	36261	25856	50114	33303	32800	
911	0	34765	23839	46743	32944	32798	
912	0	33512	24331	38577	32696	32760	
913	0	32327	26546	26695	32775	32859	
914	0	31855	28749	19339	33043	32691	
915	0	31940	30847	20364	32930	32923	
916	0	33395	32925	28805	32804	32703	
917	0	33901	34563	35990	32879	33009	
918	0	34148	34792	29958	32746	32805	
919	0	34236	35177	21282	32396	32829	
920	0	35603	34795	22603	32454	32979	
921	0	34553	33794	26182	32647	32755	
922	0	32756	33440	30336	33108	32881	
923	0	30328	33759	37783	33043	32835	
924	0	28414	33666	45154	33094	32743	
925	0	28381	33499	48451	32647	32943	
926	0	30249	33475	44231	32367	32963	
927	0	31805	33437	38279	32331	32736	
928	0	31408	33030	37930	32587	32943	
929	0	31202	32986	40289	32890	32848	
930	0	31465	31699	36999	32931	32882	
931	0	31272	31143	34018	33001	32931	
932	0	29490	30591	33723	32874	32912	
933	0	27661	30650	30714	32652	32935	
934	0	27091	31854	25760	31797	32869	
935	0	29680	33100	17814	31568	32698	
936	0	33504	34520	14266	32155	32724	
937	0	38884	35230	19816	32560	32868	
938	0	44048	35997	29074	33627	32946	
939	0	45404	36002	35872	33999	32933	
940	0	42520	35885	38701	33287	32944	
941	0	37868	35702	37978	32208	32871	
942	0	35115	34503	35999	31888	32775	
943	0	33590	32996	38583	32533	32725	
944	0	30657	31304	33851	32763	32770	
945	0	28076	29728	36385	32716	33001	
946	0	24966	29402	36619	32716	32738	
947	0	21345	29880	31992	33260	32917	
948	0	20059	31279	23606	33582	32861	
949	0	22412	32507	19971	33063	32679	
950	0	25050	33281	26089	33087	32918	
951	0	28466	32775	36573	32928	32732	
952	0	33508	30295	40027	32843	33039	
953	0	39534	28760	40115	32790	32672	
954	0	44116	28888	42850	32563	32928	
955	0	46444	30191	45805	32853	32647	
956	0	45179	32066	46847	33027	32913	
957	0	40690	33393	42596	32997	32725	
958	0	35744	33744	31808	32789	32875	
959	0	30209	33992	22246	32692	32961	
960	0	26466	34304	19869	32485	32642	
961	0	25125	34247	22634	32205	32911	
962	0	24506	34310	24699	32047	32731	
963	0	26509	34711	23503	32134	32839	
964	0	30574	35300	33752	32349	32944	
965	0	32350	35847	39620	32498	32671	
966	0	31180	35639	33059	32645	32914	
967	0	30716	34743	25580	32926	32786	
968	0	30672	33491	27179	33043	32775	
969	0	30528	32063	25385	32883	32988	
970	0	32445	32038	24258	32683	32809	
971	0	36396	33090	32553	32757	32812	
972	0	41332	33484	44548	33121	32912	
973	0	43608	32926	48477	32999	32640	
974	0	41832	31454	38708	32717	32837	
975	0	38320	30112	32450	32603	32941	
976	0	34229	29892	33407	32616	32742	
977	0	30752	29995	30285	32509	32938	
978	0	31058	30307	20938	32412	32775	
979	0	32628	31458	19200	32583	32664	
980	0	35606	33153	26095	32882	32957	
981	0	35600	35025	32866	32877	32713	
982	0	33651	36882	38713	32813	32870	
983	0	31913	38161	41762	32836	32833	
984	0	30188	38771	43468	32807	32691	
985	0	28842	37839	47447	32800	32827	
986	0	26700	35190	50030	32973	32718	
987	0	24466	31904	47929	33263	32867	
988	0	23402	29172	42319	33390	32775	
989	0	23320	26936	33964	33144	32912	
990	0	26976	26388	23492	32915	32833	
991	0	33181	27083	16802	32684	32775	
992	0	38229	28303	19757	33165	32955	
993	0	40997	27991	19871	33596	32659	
994	0	41095	28323	21560	33243	32907	
995	0	39630	30568	28228	32967	32833	
996	0	37302	31687	36688	32643	32827	
997	0	33916	31228	40167	32381	32974	
998	0	31816	30663	41478	32229	32807	
999	0	29998	30303	46522	32224	32946	
1000	0	27968	31019	44822	32336	32704	
1001	0	27045	32691	29291	32420	32954	
1002	0	29272	35200	12400	32608	32736	
1003	0	33544	37272	14064	32697	33054	
1004	0	37232	39936	27304	32978	32749	
1005	0	39297	40839	32219	32474	33021	
1006	0	39909	38672	26691	32745	32720	
1007	0	37552	34630	27623	33024	32975	
1008	0	33808	29703	33456	33100	32800	
1009	0	30047	27020	39428	32951	32866	
1010	0	28690	28164	42114	32693	32889	
1011	0	28124	30562	42499	32281	32628	
1012	0	28576	33443	45013	31998	32774	
1013	0	30571	34819	43527	32319	32886	
1014	0	31373	34370	35714	33649	33011	
1015	0	31961	33658	32805	34040	32839	
1016	0	32232	32914	29919	33580	32903	
1017	0	33560	33300	22370	33144	32996	
1018	0	35131	33607	12807	32496	32706	
1019	0	36101	33607	11304	32115	32775	
1020	0	36718	32628	23760	32359	33013	
1021	0	35720	31203	39088	32624	32801	
1022	0	34211	29817	46006	32350	32711	
1023	0	32500	28714	46959	32635	32744	
1024	0	30976	28952	48210	32761	32741	
1025	0	28264	30343	47487	32705	32759	
1026	0	27170	32809	41203	32544	32845	
1027	0	25696	35133	26304	32748	32880	
1028	0	23742	36325	15836	32583	32932	
1029	0	22994	36470	16425	32635	32932	
1030	0	26170	36298	17802	32306	32917	
1031	0	32451	35664	23198	32236	32933	
1032	0	38808	34682	35661	32595	32884	
1033	0	43408	34512	46456	32680	32864	
1034	0	45438	34246	48160	32224	32772	
1035	0	44324	33158	56019	32681	32668	
1036	0	41189	32103	57272	33376	32717	
1037	0	35384	30873	50578	33272	32861	
1038	0	29798	29792	24678	33370	32972	
1039	0	27004	29242	10884	32901	32742	
1040	0	25927	29807	4226	32880	32769	
1041	0	26883	30785	8242	32775	32698	
1042	0	29640	31239	18232	32896	32860	
1043	0	33171	32122	23636	33204	32945	
1044	0	34860	33089	27047	33095	32954	
1045	0	32744	33980	33418	32740	32886	
1046	0	29480	34608	40920	32210	32812	
1047	0	26906	35009	48953	32256	32628	
1048	0	25820	35247	53624	32653	32785	
1049	0	28311	35548	57792	32816	32902	
1050	0	33138	34706	56736	32990	32756	
1051	0	38762	33339	43350	32706	32667	
1052	0	40681	32433	26541	32602	32740	
1053	0	40797	33008	15969	32737	32727	
1054	0	39757	34347	16823	32837	32726	
1055	0	38407	35039	14743	33317	32934	
1056	0	37111	34045	15588	33363	32971	
1057	0	36240	31421	24576	33472	32701	
1058	0	35724	29374	32304	33070	32882	
1059	0	33504	28605	35699	32793	32967	
1060	0	31560	29095	37675	32588	32891	
1061	0	28987	30457	39319	32691	32912	
1062	0	27724	32140	38194	32813	32740	
1063	0	27413	32049	34948	33030	32673	
1064	0	27288	31324	31231	33104	32924	
1065	0	29309	30398	35839	33218	32880	
1066	0	31652	31045	35556	32855	32948	
1067	0	32768	33186	25465	32626	32929	
1068	0	33808	34166	17554	32556	32775	
1069	0	35020	33730	22569	32327	32723	
1070	0	35756	32967	32176	32372	32713	
1071	0	36700	32480	41607	32116	32860	
1072	0	35893	31267	43617	32341	32914	
1073	0	31581	29172	44946	32654	32871	
1074	0	29721	28743	43759	33165	32933	
1075	0	29848	30068	42302	33167	32959	
1076	0	31073	32233	38043	32809	32979	
1077	0	32112	33692	31795	32717	32903	
1078	0	33374	35015	33132	32762	32762	
1079	0	33849	34880	37653	33101	32775	
1080	0	34144	34887	36207	33062	32817	
1081	0	33892	36059	30502	32676	32693	
1082	0	33520	37002	25355	32578	32775	
1083	0	32212	37357	21500	32583	32984	
1084	0	29928	36907	22510	32643	32941	
1085	0	27793	35527	25921	32576	32937	
1086	0	27541	33799	37184	32577	32846	
1087	0	29826	32224	42822	32623	32861	
1088	0	33405	30547	39204	32845	32942	
1089	0	38032	29464	30959	33124	32950	
1090	0	39926	29226	27606	33136	32889	
1091	0	39644	30599	25526	32718	32898	
1092	0	36710	30672	19790	32169	32809	
1093	0	32409	30858	23478	32499	32790	
1094	0	29427	31923	28784	32914	32880	
1095	0	27417	33114	34138	32773	32597	
1096	0	26941	34037	34704	33091	32762	
1097	0	26712	34859	31737	33179	32839	
1098	0	27474	34628	32111	32915	32927	
1099	0	29455	33935	37383	32704	32890	
1100	0	32120	32275	43066	32632	32859	
1101	0	35305	31579	48902	32709	32734	
1102	0	35171	31399	45689	32930	32691	
1103	0	33368	31325	39140	33001	32685	
1104	0	34016	30794	32805	32845	32677	
1105	0	34786	31542	31997	33069	32775	
1106	0	33824	31940	40275	32880	32812	
1107	0	32285	32831	41118	32424	32751	
1108	0	32451	33341	37155	31913	32787	
1109	0	34308	33676	27452	31931	32866	
1110	0	34848	33328	9536	31694	32960	
1111	0	34992	33652	3358	32805	32916	
1112	0	35760	32813	12695	33473	32882	
1113	0	35530	31431	23064	33952	32821	
1114	0	36134	30589	29169	33967	32784	
1115	0	36291	29867	33590	33321	32740	
1116	0	34206	29677	37004	33110	32792	
1117	0	31056	30561	38694	32789	32919	
1118	0	29198	32214	36640	32653	32979	
1119	0	26770	34514	35007	32719	32966	
1120	0	23986	36150	39404	32638	32709	
1121	0	23320	37024	50354	32633	32716	
1122	0	23984	36359	52463	32219	32705	
1123	0	27033	35335	45816	32283	32792	
1124	0	32104	34631	41573	32492	32817	
1125	0	36508	33778	33312	32338	32880	
1126	0	40963	33236	22188	31994	32930	
1127	0	44036	33490	20166	32387	32991	
1128	0	43888	33270	22399	32647	32945	
1129	0	42274	32612	27753	33203	32933	
1130	0	38915	32022	34228	33351	32835	
1131	0	34493	30744	31936	32941	32727	
1132	0	31072	29241	28935	32852	32737	
1133	0	30402	28999	29493	32819	32761	
1134	0	31968	29033	34080	32872	32917	
1135	0	33082	30919	36546	32898	32927	
1136	0	33755	33607	35727	32621	32999	
1137	0	34265	35832	32680	32752	32937	
1138	0	33236	35907	29114	32732	32850	
1139	0	30454	36573	26670	32989	32916	
1140	0	26839	35684	25522	33287	32959	
1141	0	23280	34113	27271	32877	32915	
1142	0	24332	32056	34736	32905	32844	
1143	0	28809	29743	40888	32879	32824	
1144	0	32926	27654	39747	32728	32725	
1145	0	35414	27351	35730	32670	32963	
1146	0	37028	28659	35567	32762	33023	
1147	0	37223	30327	36995	32555	32934	
1148	0	35568	32123	35826	32530	32851	
1149	0	32829	33037	33798	32254	32687	
1150	0	32639	34069	29505	32227	32880	
1151	0	32390	34997	29061	32552	32966	
1152	0	31573	34813	31559	32616	32671	
1153	0	31506	33943	35754	32729	32847	
1154	0	31616	33959	42450	33053	32752	
1155	0	31264	34494	49200	32583	32930	
1156	0	31632	35427	51207	32467	32886	
1157	0	30353	35668	40715	32539	32720	
1158	0	30858	35122	20157	32775	32920	
1159	0	31145	33418	7235	33286	32899	
1160	0	32943	31795	13531	33313	32727	
1161	0	35912	30576	21676	33521	32850	
1162	0	36998	29869	27905	33231	32995	
1163	0	37542	30179	30930	32839	32818	
1164	0	38043	30908	30472	32582	32809	
1165	0	36497	31909	31665	32512	32938	
1166	0	34096	33159	39142	32423	32728	
1167	0	31442	34514	39653	32466	32966	
1168	0	28993	34743	34847	32905	32834	
1169	0	29204	33779	28494	33184	32687	
1170	0	31361	31943	27501	33203	32829	
1171	0	31677	30288	28423	33443	32950	
1172	0	31982	28542	27783	33282	32981	
1173	0	31552	27112	29509	32920	32822	
1174	0	31264	27581	37161	32527	32766	
1175	0	31239	28858	40885	32263	32932	
1176	0	32263	31969	40967	32281	32691	
1177	0	34869	34677	38582	32349	32949	
1178	0	37670	36074	39773	32674	32758	
1179	0	38745	37138	41701	33195	32950	
1180	0	37337	37361	44370	33427	32699	
1181	0	32337	36992	48206	33097	32918	
1182	0	26712	35517	46293	32635	32815	
1183	0	24260	33170	33060	32412	32742	
1184	0	25198	31870	18825	32704	32913	
1185	0	29219	31306	16859	33077	32902	
1186	0	35581	31597	26325	33107	32733	
1187	0	38746	31911	24790	32918	32784	
1188	0	39232	31963	24704	32631	33004	
1189	0	38022	30813	30070	32475	32803	
1190	0	35774	30621	30627	32160	32834	
1191	0	35877	30415	22708	32534	32984	
1192	0	35216	31337	17764	32809	32839	
1193	0	34055	31999	21318	32813	32736	
1194	0	34200	32997	27986	32538	32958	
1195	0	33420	33566	35252	32640	32929	
1196	0	30987	33423	39907	32795	32939	
1197	0	27404	32293	38668	32583	32849	
1198	0	24706	31887	37963	32668	32705	
1199	0	23392	31965	37679	32626	32762	
1200	0	24948	32775	36887	32715	32807	
1201	0	28512	33917	39005	32815	32859	
1202	0	32560	34521	39943	32930	32882	
1203	0	35387	34014	40672	32734	33011	
1204	0	37108	33371	40655	32562	32997	
1205	0	37410	33323	42150	32418	32933	
1206	0	36376	34262	43922	32368	32741	
1207	0	35216	35088	40113	32416	32833	
1208	0	33287	35335	28886	32890	32893	
1209	0	30800	34848	19606	32939	32946	
1210	0	28065	34235	23203	33004	32719	
1211	0	27508	34218	28376	32868	32845	
1212	0	28903	34155	34475	33050	32808	
1213	0	31052	33515	38437	33051	32715	
1214	0	33287	32611	31099	33060	32815	
1215	0	35778	31126	27788	33027	32751	
1216	0	38405	29606	25335	32918	32787	
1217	0	37436	29359	22547	33067	32877	
1218	0	37465	29204	16940	33053	32701	
1219	0	37714	28548	16309	32871	32709	
1220	0	37981	28709	23090	32612	32717	
1221	0	36715	30017	31588	32397	32934	
1222	0	34448	31087	39152	32194	32907	
1223	0	32609	31607	42765	32092	32873	
1224	0	31149	31643	44199	32031	32918	
1225	0	29028	32366	44888	32605	32936	
1226	0	27542	33492	45725	32770	32823	
1227	0	27422	35655	47429	33433	32833	
1228	0	28785	38004	50076	33460	32698	
1229	0	30151	38451	52004	33430	32740	
1230	0	29414	36975	51874	33605	32807	
1231	0	28297	34651	39712	33200	32920	
1232	0	28312	32281	13488	33072	32956	
1233	0	28946	31565	24	32851	32910	
1234	0	32340	31289	82	32443	32694	
1235	0	36064	30957	4852	32320	32896	
1236	0	39465	30680	24918	32332	32969	
1237	0	40200	30445	34158	32345	32967	
1238	0	41159	31020	35271	32696	32888	
1239	0	41472	31323	39657	32878	32850	
1240	0	39346	31678	46206	32656	32852	
1241	0	37409	32561	50475	33046	32772	
1242	0	36724	33671	47623	32967	32703	
1243	0	36121	33906	37600	32676	32696	
1244	0	34964	33580	25607	32952	32807	
1245	0	31724	33298	18999	32677	32902	
1246	0	29080	33178	23783	32638	32825	
1247	0	26546	32257	30919	32706	32903	
1248	0	23526	31636	36263	32628	32946	
1249	0	21496	30893	36773	32743	32966	
1250	0	21989	32055	34415	32541	32965	
1251	0	23106	34093	34587	32420	32902	
1252	0	25723	35587	30734	32339	32775	
1253	0	31712	35959	29453	32109	32694	
1254	0	36619	35432	36134	32505	32739	
1255	0	39904	34045	43830	32805	32738	
1256	0	40530	32391	47522	33177	32919	
1257	0	39232	31847	46795	33530	32891	
1258	0	36864	32195	37839	33430	32840	
1259	0	34341	33184	25357	33279	32876	
1260	0	32408	33522	16896	33012	32825	
1261	0	32242	33347	19540	33101	32765	
1262	0	33534	32715	29858	33178	32824	
1263	0	33563	31529	32442	32775	32756	
1264	0	34456	31437	28472	32527	32862	
1265	0	35468	31229	26155	32449	32898	
1266	0	34701	30738	26215	32553	32898	
1267	0	33048	30514	28455	32785	32950	
1268	0	29525	30181	30606	32551	32959	
1269	0	26631	30923	35808	32566	32914	
1270	0	26146	31549	42020	32960	32992	
1271	0	26677	32454	43346	32772	32885	
1272	0	27519	32466	42347	32613	33010	
1273	0	28454	31576	44971	32647	32913	
1274	0	30181	30753	42947	32774	32834	
1275	0	30702	30395	34149	32691	32735	
1276	0	31709	31471	25597	32825	32709	
1277	0	32708	33779	25191	32967	32765	
1278	0	34512	35012	20790	33096	32865	
1279	0	40044	34840	16580	33010	32960	
1280	0	44860	34201	24261	33128	32954	
1281	0	45034	33650	31340	32903	32813	
1282	0	43554	33141	27565	32774	32749	
1283	0	40314	32642	24096	32793	32903	
1284	0	35880	32207	28092	32454	32939	
1285	0	31480	32291	38736	32424	32710	
1286	0	27888	32637	45731	32494	32706	
1287	0	25146	33544	47516	32390	32739	
1288	0	24158	33433	47343	32591	32812	
1289	0	26340	33148	42586	32899	32793	
1290	0	28108	33267	32308	32945	32889	
1291	0	30480	32853	29621	32812	32771	
1292	0	33287	32669	30674	32703	32723	
1293	0	35564	32738	32741	32626	32911	
1294	0	36509	32767	31591	32655	32952	
1295	0	35376	32829	32825	32602	32691	
1296	0	32100	32729	34366	32847	32772	
1297	0	29984	32229	37383	32853	32982	
1298	0	29721	31959	34813	32946	32797	
1299	0	30856	32805	30876	32889	32917	
1300	0	33458	33637	31123	32733	32767	
1301	0	35266	33498	28879	32622	32873	
1302	0	34842	33501	20872	32708	32749	
1303	0	32973	33124	15546	32839	32863	
1304	0	31202	33125	22203	32854	32736	
1305	0	29394	33664	33411	32728	32736	
1306	0	27966	34974	40918	32442	32943	
1307	0	29182	36659	41910	32626	32775	
1308	0	31094	37965	38213	32643	32851	
1309	0	31661	38064	34657	32838	32877	
1310	0	32132	36338	33733	33101	32728	
1311	0	33984	32428	33684	33234	33012	
1312	0	35008	28210	29364	33417	32741	
1313	0	35844	25392	25554	33277	32672	
1314	0	34536	25210	24754	33042	32869	
1315	0	33415	26098	26887	32899	32775	
1316	0	33494	27591	34555	32910	32876	
1317	0	34168	29060	43621	32864	32832	
1318	0	34982	30669	43270	32853	32720	
1319	0	36132	32550	36871	32583	32992	
1320	0	35416	33813	31451	32464	32775	
1321	0	35062	34800	33235	32111	32665	
1322	0	34627	34703	36843	32147	32928	
1323	0	35541	34823	41328	32544	32962	
1324	0	38679	35273	43070	32993	32735	
1325	0	41528	35981	40071	33210	32891	
1326	0	41518	36477	32317	33121	32921	
1327	0	37772	35592	17820	33131	32704	
1328	0	32787	33368	11103	33376	32876	
1329	0	29009	30979	15012	33275	32985	
1330	0	27152	28410	23592	33179	32907	
1331	0	25540	26738	31493	33381	32797	
1332	0	25672	26345	37440	33281	32890	
1333	0	25367	27200	40692	32989	32888	
1334	0	26134	27965	44999	32547	32750	
1335	0	28687	29766	46973	32135	32963	
1336	0	30215	31285	42973	32183	32963	
1337	0	31035	32743	36128	32119	32731	
1338	0	31598	34966	30227	32075	32793	
1339	0	32581	36534	26226	31953	32957	
1340	0	34109	37273	26045	32049	32723	
1341	0	35376	38241	27266	32400	32976	
1342	0	37001	39642	30123	32421	32758	
1343	0	38140	40484	33173	32653	32711	
1344	0	37590	39107	34343	32839	32903	
1345	0	35800	36563	34797	32891	32717	
1346	0	33356	33376	36856	33228	32845	
1347	0	30169	30569	39431	33511	32895	
1348	0	27605	28966	33065	33605	32706	
1349	0	28153	29239	26842	33528	32903	
1350	0	29939	29573	27748	33414	32941	
1351	0	31973	29989	30655	32879	32919	
1352	0	32434	30391	33004	32582	32853	
1353	0	31141	30799	33748	32535	32737	
1354	0	30793	31065	30948	32666	32775	
1355	0	30692	31188	29979	32715	32892	
1356	0	30020	31623	33562	32598	32906	
1357	0	29703	31888	37518	32573	32934	
1358	0	30441	32386	36463	32703	32911	
1359	0	32981	32759	33345	32597	32907	
1360	0	36455	33353	34496	32521	32717	
1361	0	38226	33415	39004	32743	32747	
1362	0	38441	33427	36359	32725	32775	
1363	0	37709	33779	33458	32583	32715	
1364	0	34768	34082	25568	32740	32752	
1365	0	31678	35050	17926	32645	32786	
1366	0	30271	36274	21698	32635	32829	
1367	0	31590	35930	28378	32687	32768	
1368	0	33502	34992	35545	32912	32729	
1369	0	34650	32957	38329	32844	32754	
1370	0	36925	31623	37883	32825	32690	
1371	0	37071	30855	33664	32657	32743	
1372	0	33898	30213	32005	32635	32775	
1373	0	29536	30527	36130	32567	32700	
1374	0	26684	31094	36979	32646	32695	
1375	0	27426	32685	30767	32694	32764	
1376	0	29368	34320	23285	32850	32752	
1377	0	32667	35774	24782	33035	32850	
1378	0	34654	35854	33988	33044	32858	
1379	0	35216	34946	43949	32956	32920	
1380	0	35021	32306	48199	32872	32827	
1381	0	34764	29752	47359	32645	32759	
1382	0	34374	28664	39943	32580	32890	
1383	0	34592	28576	22087	32868	32888	
1384	0	34624	30284	11037	32791	32865	
1385	0	34258	32279	17256	32813	32878	
1386	0	32564	33264	28568	33106	32952	
1387	0	29537	34100	36743	32956	32960	
1388	0	26749	34920	41680	32677	32903	
1389	0	26872	35892	40553	32851	32851	
1390	0	28952	35631	31589	32904	32716	
1391	0	31856	35015	24697	33094	32694	
1392	0	34780	33052	27988	33255	32726	
1393	0	35871	30174	35527	33228	32764	
1394	0	36530	28176	41218	32993	32738	
1395	0	37748	27597	42783	32685	32666	
1396	0	38899	28929	38544	32485	32723	
1397	0	38435	30685	32263	32430	32946	
1398	0	36326	31659	27933	32443	32952	
1399	0	33368	33159	30679	32615	32861	
1400	0	31050	33943	36688	32571	32773	
1401	0	30168	34747	40073	32604	32695	
1402	0	29039	34992	44227	32795	32688	
1403	0	29336	35613	44325	32807	32786	
1404	0	30314	35981	35817	32736	33021	
1405	0	30334	35562	30993	32592	32911	
1406	0	29112	35256	26085	32620	32941	
1407	0	27104	34708	17011	32713	32881	
1408	0	25044	33466	11104	32741	32663	
1409	0	23480	31832	8510	32693	32806	
1410	0	24672	31847	14107	32842	32918	
1411	0	27969	32229	27335	32914	32912	
1412	0	32472	32186	37400	32770	32898	
1413	0	36985	32553	40431	32992	32775	
1414	0	41600	32343	41829	33092	32760	
1415	0	46242	31728	39450	33171	32757	
1416	0	47778	30963	36334	33028	32719	
1417	0	44693	31131	37166	32577	32671	
1418	0	39751	32681	39296	32557	32750	
1419	0	34282	33995	42503	32665	32775	
1420	0	31709	33846	43136	32717	32835	
1421	0	31821	31696	36723	32917	32857	
1422	0	33935	29417	29507	33176	32988	
1423	0	36068	27076	26176	32998	32960	
1424	0	36451	26237	27010	33029	32885	
1425	0	34300	27070	30884	33036	32827	
1426	0	30740	29456	32685	32740	32722	
1427	0	27170	32401	33890	32394	32775	
1428	0	25480	34463	34879	32486	32720	
1429	0	25449	35254	34847	32647	32775	
1430	0	27254	34717	34311	32423	32757	
1431	0	31564	33562	35847	32386	32829	
1432	0	35514	32135	42240	32406	32832	
1433	0	35597	31569	43559	32599	32898	
1434	0	33861	32381	34787	32971	32876	
1435	0	31744	33832	20262	32982	32890	
1436	0	29748	35462	13435	32738	32909	
1437	0	28472	35822	22048	32498	32953	
1438	0	29419	35356	31525	32672	33027	
1439	0	30402	34752	42002	32882	32981	
1440	0	31475	34665	46635	33351	32935	
1441	0	33337	34715	36778	33488	32995	
1442	0	34269	34112	27666	33282	32908	
1443	0	34818	32583	24620	33107	32926	
1444	0	34442	31585	21933	33334	32723	
1445	0	32578	30783	17461	33014	32711	
1446	0	29953	29040	21442	32880	32907	
1447	0	28508	27838	37051	32422	32934	
1448	0	28808	29270	46435	32888	32845	
1449	0	29259	31147	46904	33071	32826	
1450	0	29003	34073	41970	32634	32661	
1451	0	29927	35693	34453	32205	32651	
1452	0	32379	36803	28598	32133	32677	
1453	0	36166	37133	27988	31985	32765	
1454	0	39548	35728	34980	32290	32815	
1455	0	40893	33348	40268	32676	32775	
1456	0	39675	30941	39185	32804	32873	
1457	0	35620	29122	27350	32674	32936	
1458	0	33187	29111	20805	32832	32934	
1459	0	33655	30106	22599	32886	32951	
1460	0	33039	31110	28994	32802	32865	
1461	0	32198	31746	37722	32646	32957	
1462	0	31522	31581	43207	32627	32979	
1463	0	31784	32495	41451	32697	32927	
1464	0	32255	33751	35734	32836	32889	
1465	0	33072	35192	25238	32786	32712	
1466	0	33122	36687	21084	32923	32738	
1467	0	35392	36552	28675	32925	32711	
1468	0	36642	35103	36463	32876	32698	
1469	0	36871	32829	38823	32827	32741	
1470	0	37107	31827	38697	32987	32755	
1471	0	35984	32051	37404	32825	32663	
1472	0	34842	32069	35523	32803	32709	
1473	0	34433	31949	36855	32961	32753	
1474	0	33454	30791	35911	32937	32696	
1475	0	32151	29216	27526	32891	32673	
1476	0	30542	27946	17949	32568	32682	
1477	0	28384	28333	23395	32608	32677	
1478	0	26648	29654	33120	32544	32788	
1479	0	26048	31904	38774	32583	32908	
1480	0	26338	33967	40379	32545	32917	
1481	0	27120	35569	33863	32608	32865	
1482	0	28354	35991	26852	33017	33033	
1483	0	29890	35663	31682	32946	32918	
1484	0	30630	35124	41142	33010	32880	
1485	0	32109	34671	43783	33083	32945	
1486	0	34424	34875	41178	33027	32960	
1487	0	36238	34168	36768	32928	32923	
1488	0	36679	33763	31613	32910	32770	
1489	0	34406	33230	31469	32877	32735	
1490	0	30872	32378	27375	32908	32748	
1491	0	28163	30752	14781	33080	32753	
1492	0	27258	29567	11489	32683	32875	
1493	0	28769	29390	23202	32472	32956	
1494	0	30958	30924	35143	32580	32925	
1495	0	34532	32523	39919	32430	32760	
1496	0	38933	34532	40247	32538	32707	
1497	0	39989	35690	39902	32719	32670	
1498	0	38928	35873	35651	32937	32843	
1499	0	37312	35655	32216	33087	32879	
1500	0	35816	34299	31397	32865	32793	
1501	0	33778	32512	36384	33056	32793	
1502	0	32452	30760	41185	32931	32825	
1503	0	31098	29734	39071	32961	32894	
1504	0	30842	29678	39507	32761	32903	
1505	0	31493	30795	37803	32623	32937	
1506	0	33525	32179	28637	32552	32947	
1507	0	35389	32577	22085	32546	32946	
1508	0	36228	32369	21524	32786	32939	
1509	0	36948	31442	28669	32940	32928	
1510	0	38320	31136	40383	33053	32905	
1511	0	37072	31578	41527	32669	32959	
1512	0	35016	32137	28411	32634	32944	
1513	0	32750	32775	23952	32903	32936	
1514	0	30333	33866	25706	32570	32967	
1515	0	28992	34599	26473	32391	32882	
1516	0	27250	34685	30663	32613	32718	
1517	0	25321	34163	34091	32653	32775	
1518	0	23333	33176	30673	33047	32728	
1519	0	21533	32658	25761	32897	32737	
1520	0	21073	32999	27053	32673	32760	
1521	0	22725	32930	34893	32747	32754	
1522	0	27324	32473	39600	32664	32837	
1523	0	34968	32396	42387	32704	32851	
1524	0	42456	32277	42017	32690	32728	
1525	0	47248	32000	40796	32656	32685	
1526	0	48632	31328	39533	32412	32740	
1527	0	45784	31542	40670	32490	32855	
1528	0	40221	32964	40419	33007	32921	
1529	0	35270	35309	34912	33356	32907	
1530	0	31376	37927	29405	33192	32905	
1531	0	31077	39418	35112	33155	32785	
1532	0	31840	39129	37657	33053	32727	
1533	0	31764	36797	25536	33101	32690	
1534	0	32689	33664	19016	32898	32771	
1535	0	33748	30665	18456	32891	32868	
1536	0	33945	27450	17739	32785	32920	
1537	0	30904	24874	20174	32992	32853	
1538	0	27024	24263	26683	32739	32950	
1539	0	24968	25761	32081	32647	32899	
1540	0	24752	28883	36761	32701	32960	
1541	0	25661	31321	42816	32820	32883	
1542	0	26973	32930	45558	32876	32906	
1543	0	27812	33698	42149	32738	32802	
1544	0	28496	33213	37981	32719	32758	
1545	0	31387	32315	38407	32611	32715	
1546	0	34434	32492	32883	32669	32972	
1547	0	37754	32487	28010	32750	32903	
1548	0	41168	33037	28216	32707	32824	
1549	0	44039	33519	31332	32821	32704	
1550	0	44982	34093	34541	32603	32717	
1551	0	41981	35296	32135	32766	32707	
1552	0	37334	37039	32578	32691	32725	
1553	0	32714	38550	32121	32807	32680	
1554	0	29080	38565	30864	32923	32749	
1555	0	26668	37043	31059	32903	32775	
1556	0	26968	34282	34823	33017	32887	
1557	0	28903	30598	36619	33010	32922	
1558	0	31229	27110	34896	32873	32877	
1559	0	31541	26083	32377	32616	32907	
1560	0	30826	27131	31733	32490	32845	
1561	0	29862	29216	32125	32320	32799	
1562	0	30364	31763	32149	32445	32698	
1563	0	31094	34135	28295	32337	32708	
1564	0	30564	36410	25375	32619	32745	
1565	0	30924	38087	26098	32651	32743	
1566	0	31686	37460	33075	32871	32762	
1567	0	32505	35143	41430	32798	32665	
1568	0	32813	31704	44064	32832	32717	
1569	0	32976	28717	45131	33006	32787	
1570	0	33264	28091	39936	33016	32960	
1571	0	33904	29408	28167	33132	32886	
1572	0	33922	30658	20893	33186	32881	
1573	0	33188	31527	23751	33067	32843	
1574	0	34884	32587	26487	32706	32711	
1575	0	36404	33220	30193	32576	32671	
1576	0	37424	33477	36743	32398	32755	
1577	0	37085	33639	36903	32609	32750	
1578	0	36698	34122	31515	32663	32687	
1579	0	34574	34362	31607	32807	32794	
1580	0	32360	33990	34931	32761	32967	
1581	0	28616	33418	41987	32775	32898	
1582	0	25122	33298	41553	32740	32959	
1583	0	23387	33617	38891	32803	32865	
1584	0	23861	32489	32573	32910	32883	
1585	0	28160	32075	24429	32741	32744	
1586	0	34115	32724	18997	32887	32679	
1587	0	40790	33369	24589	32902	32664	
1588	0	45052	33255	30023	33024	32715	
1589	0	45607	32839	31218	32899	32797	
1590	0	42731	32339	33789	32743	32941	
1591	0	37250	32054	35277	32699	32985	
1592	0	32154	31650	31557	32925	32929	
1593	0	29020	31707	29191	32738	32917	
1594	0	26996	31508	37042	32755	32717	
1595	0	26736	32067	39605	32741	32693	
1596	0	27424	32103	39858	32678	32750	
1597	0	29188	32302	40344	32740	32806	
1598	0	29536	32816	35742	32745	32933	
1599	0	28412	33493	23746	32220	32929	
1600	0	28069	34346	22009	32650	32890	
1601	0	28283	34614	25973	32653	32886	
1602	0	29204	34540	32699	32599	32706	
1603	0	31392	33600	39536	32632	32742	
1604	0	36564	33362	43938	33057	32729	
1605	0	40420	32608	41915	33235	32729	
1606	0	42617	31393	35333	33534	32711	
1607	0	43056	30588	26771	33252	32754	
1608	0	41851	29937	23066	33001	32883	
1609	0	37960	30275	17459	32674	32992	
1610	0	33121	31157	17275	32497	32924	
1611	0	30013	32093	30537	32458	32888	
1612	0	27522	32981	44252	32405	32839	
1613	0	25640	34509	52930	32576	32902	
1614	0	25362	35862	51817	33073	32855	
1615	0	25805	37616	46039	32838	32850	
1616	0	28045	37672	42894	32956	32861	
1617	0	29922	37013	31809	33010	32766	
1618	0	30688	35240	14350	32394	32741	
1619	0	32048	32903	4051	32229	32733	
1620	0	32740	29831	7230	32633	32732	
1621	0	31672	28248	21519	32846	32718	
1622	0	32736	29232	35152	32518	32715	
1623	0	34924	31181	41991	32363	32720	
1624	0	37465	33223	42991	32309	32740	
1625	0	39648	34078	42768	32590	32662	
1626	0	41049	32519	36967	33195	32749	
1627	0	41384	29826	29981	33737	32681	
1628	0	39754	27999	28157	33526	32687	
1629	0	36344	27813	34680	33068	32822	
1630	0	33214	28598	41664	32647	32775	
1631	0	31696	29570	42946	32669	32803	
1632	0	28984	31266	42680	32607	32808	
1633	0	26688	32815	44000	32325	32908	
1634	0	26272	34272	38426	32272	32986	
1635	0	25600	36333	28740	32352	32800	
1636	0	25300	37678	23799	32668	32740	
1637	0	24640	38375	25552	32675	32728	
1638	0	24508	38633	31153	33035	32825	
1639	0	24486	38125	35598	32890	32879	
1640	0	26022	35579	32909	33093	32923	
1641	0	30373	31318	20132	33314	32954	
1642	0	36755	27040	15941	33200	32961	
1643	0	42970	25668	24152	33392	32772	
1644	0	47706	25220	32390	33097	32775	
1645	0	49424	26519	36084	32916	32706	
1646	0	49344	28632	38041	32826	32667	
1647	0	46635	31207	39510	32544	32703	
1648	0	42430	33004	39533	32237	32751	
1649	0	36941	34473	36044	32327	32715	
1650	0	31601	35463	32613	32356	32964	
1651	0	27048	35717	30577	32422	32983	
1652	0	23299	34622	32945	32502	32955	
1653	0	21120	34320	36437	32658	32925	
1654	0	20406	34574	33416	32548	32757	
1655	0	20768	35073	32026	32642	32685	
1656	0	21998	34664	34306	32716	32678	
1657	0	24779	34535	30194	32775	32742	
1658	0	28679	34819	26641	32791	32747	
1659	0	33950	35726	28520	32773	32736	
1660	0	37957	35687	29653	33154	32775	
1661	0	39520	34247	33209	33171	32933	
1662	0	39796	31824	40233	33174	32869	
1663	0	37976	28957	47344	33016	32876	
1664	0	34780	27372	48490	32946	32936	
1665	0	32050	27547	44487	32720	32943	
1666	0	29783	28651	36939	32818	32923	
1667	0	27628	29467	31179	32839	32785	
1668	0	27052	30167	20436	32890	32713	
1669	0	28460	31454	11717	32578	32749	
1670	0	31522	33421	14023	32573	32727	
1671	0	35008	35318	21696	32540	32755	
1672	0	38490	36608	25975	32764	32743	
1673	0	39877	37029	29718	32740	32811	
1674	0	40324	36776	32807	32869	32827	
1675	0	40583	35943	41428	32793	32775	
1676	0	37996	34368	48053	32767	32834	
1677	0	35298	32789	53205	32432	32817	
1678	0	31928	31870	52479	32659	32765	
1679	0	28808	31846	45832	32658	32805	
1680	0	26809	31857	28730	32672	32922	
1681	0	25623	32073	10660	32903	32964	
1682	0	24798	32068	5530	32589	32966	
1683	0	26226	32018	15919	33088	32978	
1684	0	28736	30663	32129	32952	32898	
1685	0	30321	29934	39367	32877	32891	
1686	0	30697	30534	33020	32795	32784	
1687	0	30962	31203	27574	32749	32790	
1688	0	31581	31712	32210	32753	32752	
1689	0	33264	32077	37211	32624	32765	
1690	0	36171	32459	39803	32772	32687	
1691	0	39547	33159	41724	32979	32702	
1692	0	42686	34311	41782	32967	32753	
1693	0	44487	35497	40888	32754	32775	
1694	0	43932	36248	35230	32720	32785	
1695	0	42668	35675	26928	32510	32729	
1696	0	40955	33877	24944	32553	32747	
1697	0	37836	32455	28583	33042	32898	
1698	0	34468	31342	37512	32805	32875	
1699	0	30816	31195	42250	32692	32900	
1700	0	27052	31712	44448	32805	32769	
1701	0	22592	33374	44546	33061	32717	
1702	0	19744	34584	39393	32994	32774	
1703	0	19668	35072	28725	32864	32936	
1704	0	22902	34971	13512	32564	32929	
1705	0	27288	32490	4411	32770	32884	
1706	0	31392	28971	7715	32938	32946	
1707	0	34656	26176	23896	33037	32846	
1708	0	35912	25220	39618	32742	32944	
1709	0	35816	26430	42981	32585	32947	
1710	0	35768	30137	40575	32775	32956	
1711	0	36292	33691	34926	32805	33009	
1712	0	35481	35745	32155	32759	32977	
1713	0	34087	36403	31141	32590	32896	
1714	0	32277	36965	37044	32767	32902	
1715	0	31751	37103	43243	32715	32877	
1716	0	32327	36623	45115	33014	32848	
1717	0	33585	34514	40403	33446	32751	
1718	0	34924	32406	38122	33287	32695	
1719	0	36804	30428	38210	32827	32706	
1720	0	38156	29773	34784	32628	32760	
1721	0	37321	30237	24667	32275	32967	
1722	0	34848	30777	13122	32536	32921	
1723	0	32669	32399	15081	32937	32979	
1724	0	31305	33739	26084	32710	32839	
1725	0	29603	33904	33087	31864	32737	
1726	0	27272	34404	35660	32108	32863	
1727	0	25033	34158	37713	32525	32924	
1728	0	24057	33503	37665	32693	32914	
1729	0	25977	32982	37658	32801	32730	
1730	0	30027	32575	36210	32903	32707	
1731	0	33309	32275	39247	33062	32807	
1732	0	37152	31682	43522	32960	32932	
1733	0	39472	30927	45142	33011	32906	
1734	0	41832	29932	43602	32829	32916	
1735	0	43195	29260	35310	32620	32761	
1736	0	41890	29532	24903	32746	32793	
1737	0	36376	30790	17828	32758	32792	
1738	0	29712	32135	20854	32916	32757	
1739	0	24692	33132	32146	32749	32677	
1740	0	22040	34013	39334	32667	32690	
1741	0	23954	35658	28685	32562	32757	
1742	0	28256	36308	14277	32651	32736	
1743	0	33260	36799	10398	32696	32888	
1744	0	36000	37052	22587	32750	32980	
1745	0	35613	37361	34934	32666	32914	
1746	0	32045	36882	43434	32578	32825	
1747	0	28044	36310	42503	32405	32690	
1748	0	25377	33819	40123	32423	32835	
1749	0	25122	30493	39400	32848	32999	
1750	0	27673	27232	35364	33188	32939	
1751	0	33912	25310	33913	33171	32867	
1752	0	39996	25378	35312	33070	32805	
1753	0	43708	28167	35559	32839	32765	
1754	0	44201	31353	30448	32914	32733	
1755	0	42523	34050	27290	32879	32725	
1756	0	39579	35412	29485	32975	32767	
1757	0	36722	35115	34151	32847	32879	
1758	0	35284	34355	36187	32615	32935	
1759	0	34480	32948	40693	32754	32941	
1760	0	33654	31123	41701	32770	32947	
1761	0	32592	30477	40338	32687	32962	
1762	0	31405	30994	38343	32827	32915	
1763	0	30641	32402	33692	32902	32813	
1764	0	29001	33355	26490	32850	32654	
1765	0	27848	33878	19462	32992	32744	
1766	0	27272	34160	20984	32769	32896	
1767	0	26738	34533	29892	32674	32979	
1768	0	24628	34422	33831	32716	32859	
1769	0	21996	33958	27975	32988	32717	
1770	0	21050	32619	23175	33091	32718	
1771	0	22776	31120	29437	32983	32700	
1772	0	27738	31184	37598	32946	32906	
1773	0	34150	31455	37719	32889	32995	
1774	0	41581	32023	31221	32696	32940	
1775	0	46643	32283	27994	32561	32920	
1776	0	46096	32134	29835	32654	32929	
1777	0	42256	32654	34878	32607	32983	
1778	0	37383	33057	38840	32572	32967	
1779	0	33566	33887	40481	32615	32974	
1780	0	31814	34779	41043	32651	33012	
1781	0	32937	35561	41851	32888	32902	
1782	0	35590	36024	38288	32871	32899	
1783	0	38204	35982	37568	32837	32829	
1784	0	38674	35822	40090	32794	33019	
1785	0	37374	34919	41590	32903	33000	
1786	0	33946	33163	37344	32923	32958	
1787	0	30624	30688	25400	32718	33007	
1788	0	26978	28192	15780	33106	32974	
1789	0	23012	26546	16673	32768	32857	
1790	0	20498	27559	22947	32844	32903	
1791	0	19656	30021	25580	32676	32971	
1792	0	19971	32165	25356	32793	32910	
1793	0	22255	33216	27255	32722	32946	
1794	0	25964	34080	33429	32591	32784	
1795	0	31521	33376	40314	32827	32797	
1796	0	37156	33287	41555	33124	32937	
1797	0	42572	32971	39422	33085	32991	
1798	0	45520	32901	37332	33155	32919	
1799	0	44751	32909	34069	33078	32945	
1800	0	43901	33031	33669	32909	32829	
1801	0	42186	33223	31123	32583	32690	
1802	0	38278	33139	29338	32491	32669	
1803	0	34978	33376	29757	32548	32803	
1804	0	32610	33626	34541	32530	32775	
1805	0	32797	32547	34601	32610	32917	
1806	0	32933	31580	30045	32489	33003	
1807	0	31121	31093	31419	32551	32932	
1808	0	29011	32099	34625	32187	32993	
1809	0	28395	34178	35335	32095	32959	
1810	0	26900	36280	33615	32524	32885	
1811	0	22349	37486	36486	32882	32896	
1812	0	19758	36910	38685	33034	32775	
1813	0	20696	34595	36357	33197	32690	
1814	0	23033	31531	30495	33225	32705	
1815	0	26480	28835	30824	33312	32775	
1816	0	33117	27808	29191	33450	32750	
1817	0	40034	27852	31952	33362	32775	
1818	0	46022	28427	31696	33064	32729	
1819	0	47904	29839	34340	32738	32709	
1820	0	45675	31145	31814	32331	32711	
1821	0	43896	32172	27778	32207	32818	
1822	0	41603	33415	30807	32208	32903	
1823	0	37299	34823	36736	32194	32985	
1824	0	32792	35584	40466	32328	32944	
1825	0	29922	36460	42488	32192	32919	
1826	0	28594	37164	32887	32581	32924	
1827	0	27564	37296	21248	32815	32928	
1828	0	25550	36327	16870	32749	32922	
1829	0	24378	34726	21413	32797	32891	
1830	0	23472	32387	25251	33032	32944	
1831	0	23589	29839	33298	33474	32908	
1832	0	25580	28361	36924	33452	32902	
1833	0	29605	27758	36194	33310	32899	
1834	0	33468	28230	30651	33336	32875	
1835	0	37193	30010	24432	33101	32694	
1836	0	40504	31864	26409	32868	32744	
1837	0	42336	33172	34063	32801	32678	
1838	0	42137	33149	42242	32510	32672	
1839	0	38682	31504	43961	32370	32677	
1840	0	34344	29418	42543	32501	32683	
1841	0	32320	28656	39837	32634	32667	
1842	0	33048	30140	39544	32611	32711	
1843	0	35734	32982	38053	32608	32635	
1844	0	39765	35728	36240	32683	32690	
1845	0	41812	36871	34311	32774	32738	
1846	0	39741	36221	33487	33051	32829	
1847	0	35787	34448	33328	33382	32807	
1848	0	31812	32711	35913	33107	32855	
1849	0	29358	31535	31947	32637	32920	
1850	0	27812	31748	28547	32502	32982	
1851	0	26651	31514	30773	32761	32991	
1852	0	25868	31239	27279	32805	32828	
1853	0	26568	31552	20730	32642	32861	
1854	0	25092	32713	20487	32793	32859	
1855	0	22072	33892	23008	33091	32851	
1856	0	21157	34739	26465	32817	32804	
1857	0	22987	35287	29373	32813	32824	
1858	0	27204	35794	27444	32622	32902	
1859	0	31239	36224	28771	32427	32973	
1860	0	34772	36011	33888	32330	32967	
1861	0	36793	35952	41731	32451	32967	
1862	0	39431	35630	45723	32848	32997	
1863	0	41104	34275	45887	32805	32851	
1864	0	40514	31885	45017	32988	32700	
1865	0	40213	30233	43266	32775	32758	
1866	0	39524	29018	38211	32738	32775	
1867	0	37268	28507	37079	32617	32816	
1868	0	34425	29719	38399	32709	32651	
1869	0	32612	32071	40163	32666	32691	
1870	0	31224	33753	36710	32824	32639	
1871	0	30716	33735	27685	32891	32754	
1872	0	32706	32272	20950	32920	32775	
1873	0	34606	30790	15551	32914	32886	
1874	0	34444	29306	7631	32786	32833	
1875	0	31907	28381	13861	32993	32736	
1876	0	28678	29127	30727	32826	32740	
1877	0	28240	31501	41607	32853	32736	
1878	0	29900	34531	41858	32757	32787	
1879	0	31559	36583	37042	32583	32820	
1880	0	33550	37099	33370	32873	32819	
1881	0	35062	34966	31195	33211	32920	
1882	0	35835	31525	36663	33176	32920	
1883	0	34680	28678	40135	33048	32974	
1884	0	32440	27573	39684	32735	32726	
1885	0	31676	27899	38319	32259	32928	
1886	0	31697	29491	35485	32254	32881	
1887	0	30948	32713	31187	32429	32703	
1888	0	29600	36178	29024	32599	32899	
1889	0	27830	39391	27753	32636	32955	
1890	0	26804	40948	21856	32614	32775	
1891	0	27816	40201	26748	32614	32837	
1892	0	30972	36912	34553	32665	32908	
1893	0	34108	32493	36911	33334	32724	
1894	0	36978	29462	38720	33287	32775	
1895	0	38284	28628	38263	33042	33039	
1896	0	37488	29286	34171	32807	32751	
1897	0	37601	30265	31047	32520	32775	
1898	0	38594	31833	32368	32733	32736	
1899	0	38571	33446	33006	32351	32729	
1900	0	37363	34147	28577	32451	32670	
1901	0	36526	33103	28958	32495	32723	
1902	0	35058	31785	38064	33008	32868	
1903	0	32059	31559	38137	33159	32874	
1904	0	27213	32009	34864	33053	32887	
1905	0	21951	32047	34736	33158	32922	
1906	0	18040	32877	35424	32886	32941	
1907	0	17441	34200	30941	32533	32952	
1908	0	21376	35592	23066	32768	32903	
1909	0	28492	37593	21446	32848	32893	
1910	0	36540	38119	26439	32652	32860	
1911	0	43052	37572	30822	32543	32948	
1912	0	47354	35620	33631	32466	32952	
1913	0	47426	32573	38692	32933	32932	
1914	0	43050	28324	44377	33298	32940	
1915	0	38696	25764	47362	32801	32917	
1916	0	33852	25223	41887	32504	32912	
1917	0	30314	26350	29018	32583	32960	
1918	0	29288	27832	22048	32903	32967	
1919	0	29484	29113	26448	32685	32955	
1920	0	28521	30796	30656	32839	32973	
1921	0	26279	32985	27645	32826	32994	
1922	0	22799	35188	25298	32738	32937	
1923	0	20664	38868	30468	32620	32980	
1924	0	21040	39969	37584	32520	32942	
1925	0	24162	39510	37622	32809	32915	
1926	0	30130	35963	35770	32791	32881	
1927	0	37940	32728	35453	32967	32698	
1928	0	43108	29438	39819	32793	32774	
1929	0	45872	27386	36354	32768	32869	
1930	0	45754	27391	35107	32660	32881	
1931	0	43120	28838	32048	32469	32983	
1932	0	37554	29927	25927	32837	32967	
1933	0	32890	32169	21607	32583	32932	
1934	0	31793	33575	24985	32597	32930	
1935	0	32496	35419	29744	32583	32916	
1936	0	32341	36854	33285	32589	32854	
1937	0	32413	37351	32882	32763	32770	
1938	0	33511	35719	30901	32798	32741	
1939	0	33610	32662	30750	33171	32745	
1940	0	32329	30277	38034	33171	32752	
1941	0	31597	29114	45008	33433	32718	
1942	0	30803	29139	50917	33157	32908	
1943	0	30040	30397	47538	32967	32991	
1944	0	28944	31130	33726	32976	32986	
1945	0	29780	31315	17449	32851	32775	
1946	0	31388	31486	16779	32827	32717	
1947	0	31414	31483	21871	32611	32749	
1948	0	30712	31611	24635	32398	32879	
1949	0	32104	32683	30009	32583	33023	
1950	0	32952	33770	37938	32720	32961	
1951	0	32996	34426	43751	32944	32825	
1952	0	32244	35379	46052	32948	32790	
1953	0	32918	35907	43347	32809	32735	
1954	0	34899	34997	37458	32658	32831	
1955	0	36904	34689	32839	32875	32939	
1956	0	36606	34048	24322	32713	32820	
1957	0	35787	33242	21734	32079	32775	
1958	0	33492	33701	26443	32351	32832	
1959	0	31416	34341	31237	32384	32825	
1960	0	30898	34405	35503	32526	32887	
1961	0	30249	33089	38530	32851	32882	
1962	0	28146	31168	38011	33193	32967	
1963	0	26201	29348	36807	33266	32967	
1964	0	27237	28472	33033	33069	32774	
1965	0	29838	28159	25340	33043	32720	
1966	0	35235	29113	21541	32909	32711	
1967	0	39132	29951	22715	32737	32743	
1968	0	39069	31954	23811	32675	32939	
1969	0	37736	33887	28568	32726	32962	
1970	0	39091	35412	37848	32742	32999	
1971	0	40546	36708	45191	32893	32922	
1972	0	39696	36743	47954	33053	32849	
1973	0	37921	35783	44187	33287	32873	
1974	0	34356	34161	39704	33058	32698	
1975	0	28116	32092	31712	32656	32903	
1976	0	21936	30972	26200	32304	32982	
1977	0	16699	30789	20372	32421	32959	
1978	0	14635	32154	17607	32479	32793	
1979	0	17323	33232	25334	32367	32765	
1980	0	24858	34121	39730	32701	32688	
1981	0	35780	34864	47850	32845	32720	
1982	0	46305	35033	44867	32740	32858	
1983	0	50776	33362	36603	33010	32844	
1984	0	49540	30574	29471	33070	32704	
1985	0	44884	29665	24245	32813	32746	
1986	0	40384	30286	19487	32688	32707	
1987	0	36497	31287	21799	32514	32724	
1988	0	33154	32101	27518	32989	32670	
1989	0	29059	31442	38407	33024	32853	
1990	0	26555	30188	46846	32832	32932	
1991	0	26209	28987	47110	32697	32744	
1992	0	25318	29560	39803	32640	32707	
1993	0	23778	31389	29128	32681	32775	
1994	0	23096	33599	18913	32570	32775	
1995	0	22980	35207	19408	32307	32903	
1996	0	23545	37002	24045	32274	32918	
1997	0	24629	37698	30918	32565	32957	
1998	0	28096	36766	37122	32571	32869	
1999	0	33828	35933	36760	32807	32809	
2000	0	39885	34809	34208	32981	32775	
2001	0	45306	34018	32619	33183	32825	
2002	0	48940	33351	32807	33330	32768	
2003	0	47882	32322	32699	33183	32815	
2004	0	44336	30682	37161	32973	32775	
2005	0	39048	29635	40069	32997	32769	
2006	0	33902	29307	40632	32775	32815	
2007	0	30965	28556	41201	32704	32775	
2008	0	30068	29021	41984	32652	32704	
2009	0	28476	30055	39980	32773	32681	
2010	0	27149	31255	40311	32630	32694	
2011	0	27224	33036	35069	32500	32775	
2012	0	28401	36127	23873	32552	32845	
2013	0	29740	37560	19627	32578	32933	
2014	0	30674	37222	18917	32801	32903	
2015	0	30830	34631	23143	32805	32844	
2016	0	29968	32407	28379	33122	32679	
2017	0	30688	30012	36153	32775	32690	
2018	0	32896	29145	44123	32784	32713	
2019	0	33504	29153	47612	32690	32775	
2020	0	31648	30496	46008	32512	32905	
2021	0	27869	32774	36544	32572	32920	
2022	0	25716	35736	17979	32496	32706	
2023	0	25272	37917	4202	32606	32712	
2024	0	26492	39698	8007	32797	32821	
2025	0	29414	39995	21336	32832	32934	
2026	0	32391	37075	28466	33065	32861	
2027	0	35984	31828	28923	33458	32688	
2028	0	40411	26550	31576	33185	33002	
2029	0	43125	24483	40048	32896	32892	
2030	0	44574	26425	48176	32698	32732	
2031	0	47069	30909	52016	32868	32888	
2032	0	47571	32828	51911	32838	32873	
2033	0	45492	32195	46695	32978	32735	
2034	0	41448	29123	38407	33158	32902	
2035	0	35957	25626	31897	33136	32967	
2036	0	29838	24762	33462	32891	32750	
2037	0	24424	26659	32179	32493	32740	
2038	0	21053	30915	28443	32206	32829	
2039	0	18833	35072	30784	32343	32930	
2040	0	20045	37383	29541	32104	32920	
2041	0	23074	38576	21479	32568	32770	
2042	0	27633	39155	23416	33075	32822	
2043	0	32328	38897	28398	33155	32947	
2044	0	33746	38113	27455	33186	33005	
2045	0	32676	37940	23459	32976	32908	
2046	0	31810	37091	23765	32701	32706	
2047	0	31899	35819	27618	32699	32755	
2048	0	31251	33168	35536	32921	32947	
2049	0	30328	29932	40954	33042	32915	
2050	0	30312	27517	42848	32774	32741	
2051	0	32132	26994	42906	32694	32757	
2052	0	35500	27664	39933	32507	32962	
2053	0	40034	28636	37984	32239	32994	
2054	0	43968	30146	35335	32466	32852	
2055	0	46380	32008	35670	32592	32672	
2056	0	47368	34166	37536	32675	32748	
2057	0	44712	34859	36542	32759	32942	
2058	0	40219	34875	34785	33063	32839	
2059	0	35672	34671	37895	33415	32928	
2060	0	31936	35296	35099	33385	32832	
2061	0	29288	35991	29413	33207	32812	
2062	0	25592	35350	29699	32711	32721	
2063	0	22002	34853	33371	32116	32676	
2064	0	19144	33778	31161	32141	32700	
2065	0	16457	32658	25235	32026	32898	
2066	0	15638	33161	18568	32194	32929	
2067	0	19805	33618	14080	32313	33016	
2068	0	26722	34311	16784	32647	32935	
2069	0	32912	34569	28374	32928	32812	
2070	0	37941	35536	34853	33056	32701	
2071	0	43600	36794	35679	33366	32766	
2072	0	44779	35693	35605	33382	32751	
2073	0	41016	32727	33936	33358	32973	
2074	0	37619	29051	33607	33546	32903	
2075	0	33993	26320	36094	33484	32946	
2076	0	30120	25568	42703	33218	32884	
2077	0	28132	26356	47085	32809	32847	
2078	0	28311	26759	46736	32115	32761	
2079	0	29113	28432	42854	32475	32749	
2080	0	29732	30950	39137	32359	32791	
2081	0	31386	34039	36555	32073	32882	
2082	0	32994	36248	27568	32105	32965	
2083	0	34456	37818	20118	32569	32966	
2084	0	36466	37882	15744	32770	32774	
2085	0	38960	37050	14877	32989	32691	
2086	0	43148	35136	20963	33145	32771	
2087	0	45284	32206	32873	33329	32803	
2088	0	43770	29546	40915	33209	32853	
2089	0	38856	27387	41403	32845	32899	
2090	0	33040	27080	42183	32749	32752	
2091	0	29008	27665	42423	32839	32639	
2092	0	26234	29341	41626	32956	32728	
2093	0	23830	32691	39958	32756	32941	
2094	0	23005	36419	34489	32478	32928	
2095	0	23050	37597	25876	32493	32908	
2096	0	24016	38250	18662	32571	32732	
2097	0	26472	38183	23701	32953	32657	
2098	0	28976	36326	32180	32888	32885	
2099	0	33100	32606	34660	32895	32960	
2100	0	37629	30043	32775	33347	32932	
2101	0	39936	29111	26990	33069	32763	
2102	0	40612	27762	32832	32263	32711	
2103	0	38724	26707	40200	32098	32768	
2104	0	36251	27077	44211	32315	32719	
2105	0	33076	28791	43363	32448	32736	
2106	0	30160	30417	36054	32479	32805	
2107	0	28408	32966	27607	32420	32689	
2108	0	29646	35303	23154	32333	32662	
2109	0	32336	37490	22215	32414	32769	
2110	0	35397	39579	19389	32598	32845	
2111	0	36832	40745	26317	33166	32909	
2112	0	37808	39009	31571	33388	32934	
2113	0	38708	35155	33005	33853	32965	
2114	0	39069	30768	32943	34062	32880	
2115	0	38049	27716	37718	33638	32741	
2116	0	34693	27373	44073	32886	32680	
2117	0	31892	28614	48448	32583	32753	
2118	0	28770	30299	48023	32229	32980	
2119	0	26394	32160	43056	32164	32997	
2120	0	25188	33119	40991	32293	33042	
2121	0	25338	33232	33709	32475	32992	
2122	0	26845	32654	24141	32537	32792	
2123	0	30520	32528	18838	33190	32702	
2124	0	34589	33415	16120	32966	32720	
2125	0	36728	35296	13562	32963	32717	
2126	0	37548	36593	14350	32606	32755	
2127	0	36768	36261	21120	33043	32759	
2128	0	34068	34682	33121	32924	32677	
2129	0	29557	33160	42594	32883	32680	
2130	0	25704	32427	43876	33057	32754	
2131	0	24224	31839	45235	33071	32711	
2132	0	25449	32013	43463	32479	32757	
2133	0	26936	31667	37156	32311	32898	
2134	0	28997	30555	35303	32413	32986	
2135	0	32437	31200	30802	32518	32861	
2136	0	36084	32842	27871	32410	32839	
2137	0	38304	35527	30792	32493	32726	
2138	0	38210	37012	39799	32726	32876	
2139	0	37378	37507	43399	33197	32942	
2140	0	35860	36250	39494	33069	32880	
2141	0	32960	33256	27124	33125	32720	
2142	0	30859	30331	22443	33071	32767	
2143	0	30875	28064	27241	32851	32894	
2144	0	30678	26683	34198	32709	32957	
2145	0	30568	26000	37539	32809	32955	
2146	0	30135	26576	36777	32893	32882	
2147	0	32068	27823	34103	32957	32740	
2148	0	35170	29607	31303	32855	32711	
2149	0	37972	31281	32208	32602	32813	
2150	0	40416	32917	35050	32424	32849	
2151	0	42496	34820	30060	32331	32874	
2152	0	41784	36333	23339	32374	32757	
2153	0	38481	36843	20551	32450	32700	
2154	0	34516	36501	25274	32288	32904	
2155	0	30672	36631	31037	33062	32960	
2156	0	29631	36847	34498	33232	32854	
2157	0	30797	36995	37971	33306	32671	
2158	0	32128	37031	36935	32978	32953	
2159	0	32288	36839	35175	32903	32775	
2160	0	31617	36511	34759	32991	32753	
2161	0	29338	35751	34853	32937	32937	
2162	0	26692	34557	35373	32877	32807	
2163	0	25140	32374	34214	32931	32704	
2164	0	24528	30302	34288	32647	32695	
2165	0	23760	27083	35158	32792	32754	
2166	0	23430	25227	31833	33110	32844	
2167	0	25564	25711	31133	33047	32935	
2168	0	30168	27766	35557	33281	32967	
2169	0	36736	30727	39149	33025	32907	
2170	0	43256	33004	35256	32510	32720	
2171	0	47544	33564	28904	32350	32971	
2172	0	48741	32502	28466	32194	33023	
2173	0	45846	31479	32908	32552	32824	
2174	0	39472	30623	38387	32327	32898	
2175	0	33158	30265	35808	32308	32966	
2176	0	27760	30447	27212	32560	32916	
2177	0	22565	31111	26021	32603	32746	
2178	0	20544	31813	30597	32519	32751	
2179	0	22581	35318	31296	32766	32873	
2180	0	25875	38880	21668	32765	32899	
2181	0	28715	40624	12517	33117	32656	
2182	0	30884	40965	21751	33115	32813	
2183	0	33060	38564	34600	32845	32947	
2184	0	35128	34428	41504	32837	32903	
2185	0	36126	30025	44188	32979	32762	
2186	0	36674	27897	45003	32772	32711	
2187	0	37889	28225	44307	33031	32922	
2188	0	38498	29593	38866	32921	32947	
2189	0	38315	31797	37073	32478	33012	
2190	0	37444	33367	38714	32455	32699	
2191	0	37124	33879	36466	32599	32839	
2192	0	36730	33023	27480	32720	32905	
2193	0	35284	30988	18192	32812	32646	
2194	0	33703	29338	19085	33414	32846	
2195	0	32320	28779	28253	33040	32889	
2196	0	30855	28462	34245	32589	32899	
2197	0	29532	29008	36969	32583	32791	
2198	0	29366	30875	39803	32993	32742	
2199	0	28705	32374	43407	33573	32736	
2200	0	28008	33555	44836	33237	32897	
2201	0	27479	33851	42488	32742	33001	
2202	0	27373	34123	37607	32340	32857	
2203	0	28984	33903	30781	32367	32728	
2204	0	31550	33829	27554	32807	32749	
2205	0	33449	33951	25238	32834	32971	
2206	0	36300	33927	27122	32821	32887	
2207	0	38712	33391	29253	32672	32687	
2208	0	39874	32656	24009	32628	32739	
2209	0	40843	32818	15970	32368	32920	
2210	0	39412	33741	18756	32857	32947	
2211	0	34823	34412	31058	32954	32936	
2212	0	28960	34210	37019	33314	32708	
2213	0	24093	34301	35013	32633	32711	
2214	0	21132	34358	31766	32187	32883	
2215	0	20705	34133	35620	32394	32926	
2216	0	23280	34023	40984	32659	32774	
2217	0	28566	33872	43307	32781	32720	
2218	0	34160	32661	39270	32688	32768	
2219	0	37874	32141	31955	32637	32839	
2220	0	38505	31797	25832	32736	32850	
2221	0	39404	32045	29402	32925	32930	
2222	0	39246	33733	37328	32997	33003	
2223	0	39161	35267	36955	33090	32895	
2224	0	38221	34920	29165	32797	32746	
2225	0	36928	33442	27111	32868	32763	
2226	0	36022	31962	38022	32671	32848	
2227	0	34776	30722	48518	32508	32873	
2228	0	32644	30744	53381	32984	32950	
2229	0	29152	32124	54238	32998	32953	
2230	0	26488	33051	45060	33112	32916	
2231	0	25796	32199	26401	33020	32962	
2232	0	25413	30421	7950	32816	32966	
2233	0	26484	30236	3403	32818	32927	
2234	0	29528	31489	8728	32509	32931	
2235	0	34324	33222	9567	32263	32990	
2236	0	38611	35028	22045	32360	32912	
2237	0	40580	35596	35584	32394	32775	
2238	0	40243	34541	41425	32500	32758	
2239	0	38524	33111	41403	32762	32698	
2240	0	35208	31315	37816	32957	32861	
2241	0	31557	28775	36170	32881	32857	
2242	0	30363	28005	40180	32896	32873	
2243	0	30400	27855	45906	32845	32905	
2244	0	28966	29779	45549	32895	32992	
2245	0	26352	32545	42472	32792	32923	
2246	0	24701	35620	33828	32668	32921	
2247	0	24997	36206	25395	32621	32976	
2248	0	27369	36674	29223	32853	32788	
2249	0	32384	34251	31012	33286	32805	
2250	0	38506	32152	26550	33168	32828	
2251	0	43794	31378	25775	33069	32825	
2252	0	44073	30266	33144	32964	32863	
2253	0	40060	29907	41934	32682	32847	
2254	0	35200	30215	43105	32507	32902	
2255	0	30685	31119	39144	32367	32966	
2256	0	28613	32118	35931	32515	32922	
2257	0	27224	32435	34743	32695	32952	
2258	0	27098	33515	34161	32724	32978	
2259	0	27591	34738	27774	33023	32921	
2260	0	28408	37240	18766	32870	32940	
2261	0	29012	39332	9816	32577	32946	
2262	0	30928	39096	9833	32407	32941	
2263	0	33716	36015	15620	33143	32980	
2264	0	36780	31921	26136	32872	32804	
2265	0	41047	28915	35983	32832	32749	
2266	0	44032	27664	41904	33023	32704	
2267	0	43824	27896	45506	33351	32820	
2268	0	41736	28569	45271	33383	32813	
2269	0	38995	29377	43053	33189	32877	
2270	0	36304	31117	41600	32711	32895	
2271	0	33650	34621	43628	32831	32861	
2272	0	30788	37314	46406	33025	32803	
2273	0	28295	36960	42620	32775	32719	
2274	0	25640	34675	36587	33019	32690	
2275	0	25312	31523	33532	33254	32833	
2276	0	26297	29190	31589	33083	32735	
2277	0	26189	28497	28842	33277	32804	
2278	0	26904	28365	25071	33026	32692	
2279	0	28318	29519	23366	32775	32706	
2280	0	29209	30901	21914	32351	32850	
2281	0	30206	33121	27430	32227	32928	
2282	0	32001	35519	32509	31750	32976	
2283	0	33693	36455	37827	31935	33014	
2284	0	33746	35632	42048	32668	32939	
2285	0	32818	34547	36679	32680	32948	
2286	0	30846	33065	25269	31983	32937	
2287	0	27916	32071	16749	32058	32984	
2288	0	26648	31731	16374	32360	32959	
2289	0	28129	31533	28402	32587	32981	
2290	0	30146	31751	35214	32824	32903	
2291	0	33892	32480	40342	32867	32953	
2292	0	37696	32942	42951	32733	32904	
2293	0	40485	33619	38864	32535	32879	
2294	0	40621	34136	30147	32596	32874	
2295	0	39327	34789	30877	32430	32946	
2296	0	37669	35548	35169	32775	32895	
2297	0	35531	36577	34758	33026	32839	
2298	0	32722	36798	33129	33028	32896	
2299	0	32705	36520	28414	33075	32897	
2300	0	33876	35718	26138	33132	32919	
2301	0	35504	34649	31026	33287	32944	
2302	0	36836	33480	37575	33458	32967	
2303	0	36274	31611	43567	33083	32945	
2304	0	36088	29639	42690	32832	32899	
2305	0	37803	28993	36282	32681	32891	
2306	0	38936	29113	36331	32457	32833	
2307	0	36008	29690	41058	32324	32874	
2308	0	30255	31184	43269	32316	32898	
2309	0	25152	33096	38960	32627	32982	
2310	0	21214	32460	23262	32646	32900	
2311	0	20250	30409	10310	33001	32720	
2312	0	22432	28105	11012	33107	32742	
2313	0	26130	26951	20545	33339	32640	
2314	0	31212	27817	25806	33352	32688	
2315	0	37408	31265	24249	32835	32752	
2316	0	41622	34146	24777	32929	32756	
2317	0	42496	36179	29687	33273	32737	
2318	0	40664	36112	36047	33223	32743	
2319	0	36914	34479	41163	32882	32728	
2320	0	33370	32239	43938	32871	32819	
2321	0	29984	30913	44517	32831	32764	
2322	0	26957	30471	46625	32687	32698	
2323	0	25784	30754	48237	32400	32881	
2324	0	27845	31980	46128	32374	32722	
2325	0	30906	34166	40960	32379	32626	
2326	0	34336	36272	36682	32494	32775	
2327	0	39652	37801	33047	32652	32832	
2328	0	42696	37368	31525	32582	32847	
2329	0	40939	34946	30785	32695	32863	
2330	0	36120	31430	25440	32547	32749	
2331	0	31354	28954	21260	32649	32725	
2332	0	27448	28986	24338	32801	32720	
2333	0	24071	30467	24853	32996	32898	
2334	0	22776	32178	22471	33328	32971	
2335	0	25289	34934	21775	32930	32967	
2336	0	28040	36547	23676	32861	32896	
2337	0	30406	37134	32261	32933	32943	
2338	0	33325	36660	41777	33135	32871	
2339	0	37088	35625	43646	33280	32957	
2340	0	38045	33886	40115	33139	32978	
2341	0	36368	31789	34637	32775	32997	
2342	0	33668	31425	36375	32454	32888	
2343	0	30922	32330	43904	32269	32856	
2344	0	29501	33446	42406	32474	32741	
2345	0	29549	32512	30421	32679	32754	
2346	0	31133	30264	21184	32976	32744	
2347	0	35525	28865	21440	32882	32926	
2348	0	39136	28405	28068	32976	32917	
2349	0	40418	29831	31191	32868	33039	
2350	0	40306	31859	30727	33067	32955	
2351	0	39884	31643	32396	33027	32794	
2352	0	36378	29842	40127	32892	32704	
2353	0	32332	28670	44594	32718	32918	
2354	0	29092	30190	45714	32207	33013	
2355	0	26352	31674	44187	32233	32982	
2356	0	23908	33029	41794	33368	32955	
2357	0	24002	35012	29896	33618	33000	
2358	0	24994	36490	10602	33232	32960	
2359	0	28165	38124	2610	32702	32872	
2360	0	32600	39326	6053	32541	32880	
2361	0	36391	38474	26028	32536	32770	
2362	0	38074	36439	39088	32684	32769	
2363	0	37888	34806	41008	32494	32651	
2364	0	37768	33391	36623	32419	32835	
2365	0	36911	31808	34281	32423	32951	
2366	0	34453	30629	36807	32340	32953	
2367	0	31992	29355	43269	32368	32868	
2368	0	29449	26986	46143	32065	32630	
2369	0	28402	25591	43862	32069	32831	
2370	0	29186	26611	44141	32253	32939	
2371	0	31463	29170	40833	32787	32849	
2372	0	33242	30989	32788	33227	32722	
2373	0	35056	32388	26320	33254	32693	
2374	0	35842	34445	28255	33189	32735	
2375	0	37130	36699	29234	32967	32792	
2376	0	37776	39071	30267	32754	32895	
2377	0	37020	40402	32882	32775	32950	
2378	0	35508	39306	29703	33095	32898	
2379	0	32308	35500	15724	33040	32877	
2380	0	29060	31126	6434	32949	32775	
2381	0	26778	28035	15452	32524	32718	
2382	0	24440	26870	31840	32660	32699	
2383	0	24093	27552	38904	32436	32683	
2384	0	24950	29582	43033	32521	32762	
2385	0	26917	32006	44423	32859	32877	
2386	0	29298	33898	42896	32769	32890	
2387	0	31514	35458	45111	33140	32839	
2388	0	33666	36722	45752	33626	32918	
2389	0	37328	36683	48484	33238	32960	
2390	0	40450	35692	50070	32713	32775	
2391	0	39837	33882	45895	32646	32773	
2392	0	37581	32492	29019	32626	32710	
2393	0	36664	30798	7874	32816	32784	
2394	0	36562	30559	2310	33025	32730	
2395	0	35578	30199	14264	32793	32833	
2396	0	36406	29356	30758	32720	32902	
2397	0	37629	28180	40889	32718	32910	
2398	0	36869	28434	38829	32754	32962	
2399	0	34266	29586	42323	32613	33023	
2400	0	31380	30900	41176	32413	32797	
2401	0	28845	33088	28160	32273	32780	
2402	0	26808	36516	11354	32036	32864	
2403	0	26896	39619	8046	32775	32921	
2404	0	28152	40696	20026	32916	32925	
2405	0	28236	39184	32826	33064	32797	
2406	0	28573	35144	42234	33282	32737	
2407	0	31073	30970	49055	33565	32732	
2408	0	33442	28564	55024	33376	32753	
2409	0	35288	29266	52818	32902	32703	
2410	0	36294	32098	50858	33009	32726	
2411	0	36566	34871	48029	32883	32679	
2412	0	37066	35232	32792	32772	32728	
2413	0	37220	34502	5629	32863	32880	
2414	0	37270	31975	1226	32805	32866	
2415	0	37286	29144	4994	33017	32872	
2416	0	36724	25947	20994	32797	32819	
2417	0	36016	23257	35335	32882	32872	
2418	0	35445	23012	44390	32873	32816	
2419	0	34237	25893	47381	32505	32839	
2420	0	32728	30298	47495	32283	32928	
2421	0	31408	35368	49577	32775	32903	
2422	0	29048	38433	47600	32647	32884	
2423	0	27260	39273	39838	32318	32899	
2424	0	25184	38290	36674	32236	32947	
2425	0	24537	37211	36390	32186	32966	
2426	0	23632	36282	29379	32672	32955	
2427	0	23278	33742	17396	32718	32888	
2428	0	25256	30378	12012	33128	32704	
2429	0	28414	27705	18892	32743	32690	
2430	0	31793	26821	23268	32637	32737	
2431	0	35623	27804	27088	32946	32630	
2432	0	38520	30987	30444	33067	32654	
2433	0	38784	35548	33159	33496	32706	
2434	0	37656	38467	37791	33311	32902	
2435	0	37084	39303	40838	32922	32967	
2436	0	37089	38959	43608	32787	32984	
2437	0	35840	37933	46078	33021	32898	
2438	0	34360	37133	42840	33276	32909	
2439	0	33412	36225	32178	33209	32907	
2440	0	32541	34667	26713	33119	32863	
2441	0	31553	31256	27667	32659	32909	
2442	0	31965	27857	32851	32710	32936	
2443	0	32403	26114	36718	32678	32982	
2444	0	32755	26176	37817	32408	32839	
2445	0	34158	27633	31618	32119	32723	
2446	0	35911	30499	25482	31725	32835	
2447	0	36588	33694	25695	32019	32953	
2448	0	35184	35977	32992	32438	32978	
2449	0	33053	36482	36903	32657	32933	
2450	0	32458	36402	36079	33223	32955	
2451	0	32604	34840	33734	33196	32738	
2452	0	31780	32199	29575	32739	32795	
2453	0	30460	29716	33023	32435	32966	
2454	0	28412	29036	31883	32564	32861	
2455	0	26821	28980	27763	32964	32685	
2456	0	26082	29670	27163	33521	32883	
2457	0	26671	30279	25411	33258	32933	
2458	0	30486	31618	23386	32515	32765	
2459	0	35401	33200	25189	32227	33032	
2460	0	38995	34693	31024	32534	32950	
2461	0	42370	34812	37941	33224	32955	
2462	0	46544	34524	43618	33446	32800	
2463	0	46821	34195	43293	33070	32679	
2464	0	44259	34077	41411	32812	32845	
2465	0	39560	34371	43293	32775	32949	
2466	0	33613	35500	37170	33088	32818	
2467	0	28598	36196	30842	32880	32755	
2468	0	25846	35709	34979	32839	32902	
2469	0	23903	35265	39275	32613	32936	
2470	0	22365	34062	31730	32472	32863	
2471	0	21138	31088	21636	32363	32756	
2472	0	20232	29259	21390	32543	32663	
2473	0	20777	28837	25400	32679	32883	
2474	0	23054	31397	29028	32399	32933	
2475	0	25658	34419	31954	32680	32645	
2476	0	28621	35248	32233	33159	32739	
2477	0	32386	33010	26772	32898	32974	
2478	0	37469	30661	24113	33005	32939	
2479	0	42170	29227	30849	32726	32733	
2480	0	44215	29727	35192	32640	32887	
2481	0	42930	32125	35847	32509	32931	
2482	0	39843	33867	37430	32248	32761	
2483	0	36164	34527	38939	32199	32993	
2484	0	31632	33282	41516	32578	32850	
2485	0	27460	31873	39355	33321	32882	
2486	0	25500	31150	38174	33845	32835	
2487	0	24201	30317	38169	33590	32874	
2488	0	25018	29714	36407	33263	32940	
2489	0	27692	30035	32319	33127	32903	
2490	0	31797	30144	27108	32967	32941	
2491	0	37286	31101	22727	32674	32825	
2492	0	42036	31346	25408	32658	32666	
2493	0	43787	31154	32656	32620	32684	
2494	0	43478	31730	38596	32239	32720	
2495	0	42290	33700	40341	32370	32787	
2496	0	39416	35650	35618	32420	32751	
2497	0	36964	37123	29911	32890	32693	
2498	0	35314	37690	23281	32857	32666	
2499	0	33482	37179	23899	32809	32667	
2500	0	32105	36928	28707	32256	32800	
2501	0	31017	37383	31531	32403	32741	
2502	0	30927	37419	32021	32927	32735	
2503	0	31412	35781	34834	33115	32730	
2504	0	32180	32495	38150	33510	32690	
2505	0	31374	28371	38305	33522	32707	
2506	0	29472	25897	34422	33159	32753	
2507	0	28361	25588	32333	32524	32656	
2508	0	29125	27442	33165	32135	32823	
2509	0	30534	30183	33637	32757	32847	
2510	0	29256	31003	35427	32775	32868	
2511	0	27421	31361	38610	33134	32975	
2512	0	24956	31575	40674	33558	33029	
2513	0	24170	31400	39994	33639	32861	
2514	0	24338	31875	40112	33151	32733	
2515	0	25207	32801	34797	32666	32863	
2516	0	27339	33604	21013	32256	32690	
2517	0	31272	35069	12861	31862	32817	
2518	0	35042	37994	22044	31532	33037	
2519	0	38372	41366	31560	32186	32996	
2520	0	41228	43669	36683	32541	32858	
2521	0	42840	42160	40665	32850	32839	
2522	0	41914	38144	34889	33210	32686	
2523	0	38854	32382	27224	33321	32704	
2524	0	36976	26465	25362	33097	32833	
2525	0	35616	21891	26419	32679	32813	
2526	0	33654	21212	28271	32861	32881	
2527	0	33957	24255	27463	32583	32939	
2528	0	34627	27655	31897	32556	32933	
2529	0	33600	29440	43172	32237	32876	
2530	0	32464	31894	49910	31989	32930	
2531	0	31284	35574	45520	31862	32988	
2532	0	30538	39128	37072	32211	32932	
2533	0	30599	40455	32604	32805	32967	
2534	0	30343	39805	31179	33263	32908	
2535	0	29501	37279	29461	33428	32850	
2536	0	29290	35218	31936	33167	32873	
2537	0	28812	31902	40205	33384	32863	
2538	0	28576	30122	42989	32974	32890	
2539	0	31343	29837	33678	32792	32918	
2540	0	34696	30625	23911	32793	32903	
2541	0	37714	31269	22210	32587	32908	
2542	0	39367	31622	19234	33213	32952	
2543	0	39201	31892	11890	32960	32910	
2544	0	38185	30951	10473	32560	32821	
2545	0	37308	30541	21869	33061	32741	
2546	0	35608	30449	30699	32807	32717	
2547	0	31825	30603	35085	32859	32751	
2548	0	28466	30166	42055	32808	32800	
2549	0	27819	28969	48720	32693	32979	
2550	0	28373	29163	51911	32497	32940	
2551	0	28462	30830	53942	32391	32880	
2552	0	29320	31298	53339	32429	32934	
2553	0	28745	31088	42907	32640	32967	
2554	0	27654	32576	24916	32744	32948	
2555	0	27450	35177	13642	32568	32953	
2556	0	30306	38237	13951	32848	32956	
2557	0	34892	40562	20573	32863	32924	
2558	0	39489	41293	31342	32769	32904	
2559	0	41896	41040	41291	33017	32906	
2560	0	41414	37485	45895	33387	32978	
2561	0	39716	32016	49949	33496	32978	
2562	0	37562	26522	45504	32794	32809	
2563	0	36250	24416	26938	32313	32718	
2564	0	35044	24884	11394	32184	32775	
2565	0	33764	27651	4289	32624	32832	
2566	0	32724	30640	13363	32967	32768	
2567	0	32282	33648	29268	32549	32781	
2568	0	32012	36631	38570	32379	32852	
2569	0	32297	38069	41612	32691	32853	
2570	0	31718	37616	42985	33044	32797	
2571	0	30509	34212	45821	33120	32989	
2572	0	29858	30465	44203	33392	32943	
2573	0	29686	28855	39258	33535	32963	
2574	0	28560	29443	36073	33644	32953	
2575	0	28488	30180	37555	33831	32953	
2576	0	29136	30233	40715	33287	32959	
2577	0	29896	30496	42499	32809	32911	
2578	0	30532	30594	44018	32709	32863	
2579	0	29819	30556	35139	32719	32931	
2580	0	28364	30288	20146	32165	32756	
2581	0	29612	30658	17336	32357	32721	
2582	0	31384	31150	22270	32081	32737	
2583	0	33260	32211	25238	31872	32659	
2584	0	33943	33151	24855	31967	32664	
2585	0	32817	34167	26562	32089	32717	
2586	0	32412	34491	30025	32147	32903	
2587	0	32553	35899	29532	32141	32839	
2588	0	33342	37279	30681	32530	32730	
2589	0	34009	38873	34082	32998	32718	
2590	0	33892	38783	41977	33233	32786	
2591	0	31604	39456	43274	33432	32769	
2592	0	30252	38779	35847	33646	32753	
2593	0	30111	36606	26786	32973	32856	
2594	0	30019	34951	24302	32184	32902	
2595	0	30594	33827	27467	31584	32913	
2596	0	30932	32404	32346	31709	32903	
2597	0	33842	31076	38151	32293	32910	
2598	0	36528	29693	40425	32892	32994	
2599	0	38854	27911	39886	32698	32992	
2600	0	39069	27649	37139	33014	32965	
2601	0	37658	29492	33703	33634	32963	
2602	0	36318	32386	31041	33852	32960	
2603	0	33983	34244	25854	34472	32912	
2604	0	33315	35013	25383	34426	32932	
2605	0	32848	34402	31554	33931	32863	
2606	0	31632	32899	35303	32755	32744	
2607	0	30720	31602	30947	31960	32770	
2608	0	31177	30840	33236	31711	32824	
2609	0	33700	30841	41405	32073	32902	
2610	0	35512	30887	44866	32613	32753	
2611	0	35112	30608	34855	32991	32775	
2612	0	33415	31483	27641	32723	32774	
2613	0	30832	33518	27067	32386	32691	
2614	0	28554	33837	20864	32630	32706	
2615	0	29288	33113	17542	32379	32788	
2616	0	31816	32808	22492	32623	32809	
2617	0	33648	31690	36124	32557	32853	
2618	0	33545	30898	46151	32475	32863	
2619	0	34148	30625	46191	32689	32879	
2620	0	34324	31998	43501	32939	32873	
2621	0	34082	33287	43372	32683	32912	
2622	0	35034	33736	38363	32493	32975	
2623	0	35904	33132	29619	32651	32955	
2624	0	33942	33707	30571	33173	32923	
2625	0	32211	34643	30595	33616	32853	
2626	0	31200	35266	20568	33629	32839	
2627	0	29490	33330	9072	33234	32804	
2628	0	29412	30079	11284	33174	32623	
2629	0	31432	28754	24738	33029	32680	
2630	0	34610	28701	37785	32649	32845	
2631	0	37792	29906	44712	32738	32888	
2632	0	41212	31074	47075	32761	32918	
2633	0	42763	31747	44188	32927	32798	
2634	0	42254	30896	35323	32893	32707	
2635	0	40954	29247	31705	32662	32726	
2636	0	38496	28487	34770	32439	32707	
2637	0	34332	28450	39264	32446	32681	
2638	0	29604	28679	38550	32210	32851	
2639	0	25580	31307	33392	32242	32923	
2640	0	22784	35356	33528	32391	32989	
2641	0	20656	38838	36712	32263	32982	
2642	0	20301	42020	41684	32477	32825	
2643	0	21277	44020	43975	32711	32739	
2644	0	23012	44759	45032	32903	32704	
2645	0	24389	42684	42012	32967	32734	
2646	0	25816	38266	29652	33008	32860	
2647	0	26361	33264	9539	32825	32785	
2648	0	27592	28627	1038	33264	32872	
2649	0	28719	25154	11792	33086	32899	
2650	0	30812	24527	27396	32542	32975	
2651	0	32902	26861	34195	32340	32955	
2652	0	36140	29582	37476	32277	32912	
2653	0	40396	31876	38325	32522	32935	
2654	0	43724	32793	36045	32803	32902	
2655	0	45612	33073	34311	32927	32902	
2656	0	45852	34171	35631	32966	32960	
2657	0	44852	36061	31653	32749	32999	
2658	0	42222	38801	26681	32760	32936	
2659	0	38296	40485	29839	32902	32970	
2660	0	34818	38061	33341	33579	33019	
2661	0	32774	32147	32612	33787	32909	
2662	0	31560	26048	35373	33430	33036	
2663	0	32304	23028	38697	32951	32952	
2664	0	33260	22092	42367	32636	33042	
2665	0	32107	24418	47111	32422	32963	
2666	0	29651	27101	47461	32240	32798	
2667	0	26403	29389	36649	32442	32758	
2668	0	23184	32432	19974	32568	32774	
2669	0	22412	34036	11303	33166	32914	
2670	0	23687	35686	17285	33200	32999	
2671	0	25660	36752	27044	33127	32793	
2672	0	28555	37990	32701	32921	32746	
2673	0	31442	38114	34639	32718	32892	
2674	0	36636	36752	33961	32390	32912	
2675	0	40378	35425	31344	32005	32967	
2676	0	43776	34589	30759	32256	33010	
2677	0	46008	33464	32471	32544	32866	
2678	0	45872	31265	37270	32647	32708	
2679	0	43736	29272	43128	32833	32912	
2680	0	40276	27609	49414	32955	32665	
2681	0	36570	27066	50279	32835	32933	
2682	0	32333	28200	44106	32467	32727	
2683	0	27608	30598	28096	32536	32745	
2684	0	24794	34096	13257	32430	32976	
2685	0	23056	38110	11448	32358	32749	
2686	0	22765	40130	24228	32674	32834	
2687	0	23946	40067	35005	32979	32940	
2688	0	24556	38444	40923	33197	32728	
2689	0	25261	36672	45210	33306	32803	
2690	0	26158	33216	46230	33391	32927	
2691	0	27667	29006	40477	33650	32699	
2692	0	29378	26132	31386	33953	32813	
2693	0	31613	25452	24308	33351	32795	
2694	0	34260	26957	20218	32761	32737	
2695	0	36794	30474	22079	32233	32642	
2696	0	39568	33951	26554	32002	32784	
2697	0	41323	37750	30457	32217	32736	
2698	0	40724	40668	32253	32483	32743	
2699	0	38197	39559	30175	32720	32860	
2700	0	35922	36600	33999	32695	32948	
2701	0	34143	33468	43311	32590	32978	
2702	0	31361	31257	44285	32742	32950	
2703	0	28034	29906	36238	32989	32952	
2704	0	24982	28851	28045	33645	32804	
2705	0	23728	28832	24950	33050	32804	
2706	0	25546	29766	23928	32839	32773	
2707	0	28582	31395	26077	32515	32851	
2708	0	33392	31869	31632	32614	32836	
2709	0	37893	31512	38772	32016	32925	
2710	0	40022	30871	40420	31771	32827	
2711	0	41417	31115	39602	31828	32873	
2712	0	40218	33244	44960	32221	32813	
2713	0	37718	34183	49090	32544	32705	
2714	0	35126	33315	45191	32351	32696	
2715	0	33478	32450	38335	33345	32738	
2716	0	29859	32029	29456	34069	32763	
2717	0	27416	33842	26567	33856	32878	
2718	0	26165	35842	26611	33663	32917	
2719	0	25818	38144	13148	33208	32904	
2720	0	28252	38677	3683	32812	32923	
2721	0	32198	38062	6465	32907	32951	
2722	0	36864	36560	10168	32865	32820	
2723	0	40977	33840	29814	32826	32754	
2724	0	42503	30211	37404	32720	32719	
2725	0	41736	27522	41654	32918	32807	
2726	0	39648	26440	44542	32279	32903	
2727	0	35416	27356	45993	32053	32843	
2728	0	32016	28895	45411	32413	32880	
2729	0	29618	29063	44007	32647	32937	
2730	0	27734	28895	43411	32817	32877	
2731	0	25687	29400	43822	33027	32855	
2732	0	24591	30003	41470	32839	32927	
2733	0	26616	31331	37592	32691	32833	
2734	0	29338	32033	32386	32679	32677	
2735	0	31596	32771	27401	32663	32873	
2736	0	33276	33938	25458	32502	32943	
2737	0	35546	34154	29350	32232	32978	
2738	0	36715	35148	32343	32197	32720	
2739	0	35997	35179	33239	32567	32767	
2740	0	35175	35461	34128	32677	32711	
2741	0	34176	35271	33536	32487	32898	
2742	0	32968	36147	31207	32495	32748	
2743	0	32327	37672	30067	32590	32849	
2744	0	33544	37427	36733	33306	32736	
2745	0	34285	34783	45674	33984	32944	
2746	0	31256	31883	44658	33467	32753	
2747	0	28354	29856	29002	33272	32840	
2748	0	26981	28384	11852	32797	32882	
2749	0	26210	28558	7016	32523	32675	
2750	0	26940	29417	11974	32533	32963	
2751	0	30681	29838	20119	32562	32858	
2752	0	34278	30914	27512	32436	32696	
2753	0	35172	31943	37721	32280	33007	
2754	0	35283	33645	44794	32269	32749	
2755	0	35739	35495	45383	32213	32984	
2756	0	36298	36952	44748	32625	32696	
2757	0	36201	37421	45417	33152	32868	
2758	0	34740	38198	45575	33765	32891	
2759	0	33668	38746	40530	34055	32716	
2760	0	34109	36936	29420	33805	32952	
2761	0	35250	33187	20122	33500	32867	
2762	0	35504	29899	24123	33467	32705	
2763	0	35213	27870	32123	33282	32909	
2764	0	36790	26296	32656	33040	32945	
2765	0	37412	25839	33498	32514	32866	
2766	0	37170	25968	29454	31791	32720	
2767	0	35531	26493	24089	31681	32851	
2768	0	33522	27014	25496	32027	32969	
2769	0	31368	26601	32189	32406	32711	
2770	0	29465	26851	34340	32715	32797	
2771	0	28900	28591	32765	32848	32835	
2772	0	30042	31933	31511	32877	32731	
2773	0	30774	35894	35512	32741	32619	
2774	0	30822	38381	43513	32671	32638	
2775	0	30520	40068	48834	32907	32717	
2776	0	30614	40402	42880	33224	32842	
2777	0	30090	39278	29751	33144	32997	
2778	0	30184	37112	17299	32609	32990	
2779	0	30677	34269	18882	32438	32961	
2780	0	32199	32696	29302	32454	32935	
2781	0	33188	32255	38259	32406	32978	
2782	0	33792	32529	47111	32539	33033	
2783	0	35699	33336	49779	32536	32898	
2784	0	35852	34144	39026	32717	32926	
2785	0	33783	34694	23439	32537	32961	
2786	0	31508	34951	20872	32645	32908	
2787	0	29134	34680	23480	32423	32825	
2788	0	27973	34235	23266	32466	32715	
2789	0	26679	33617	24359	32442	32707	
2790	0	26744	32620	31787	32852	32800	
2791	0	27342	31791	40530	33172	32923	
2792	0	28679	32324	43015	33625	32914	
2793	0	31872	34128	42832	34265	32805	
2794	0	35788	34982	39973	34405	32763	
2795	0	39595	34267	36300	34053	32809	
2796	0	39538	32903	35040	33254	32860	
2797	0	37510	31046	32963	32590	32671	
2798	0	34818	29689	24866	32013	32656	
2799	0	31691	29058	17693	32122	32756	
2800	0	29010	28012	19670	32082	32775	
2801	0	28224	27015	25915	31725	32768	
2802	0	28150	26885	29415	32007	32786	
2803	0	28427	26799	30947	32217	32915	
2804	0	29978	27903	34898	32416	32976	
2805	0	32275	30563	38242	32417	32891	
2806	0	36046	33974	42420	32892	32960	
2807	0	39722	37033	40448	33244	32932	
2808	0	42832	37925	34929	33218	32913	
2809	0	44606	37267	36069	32829	32734	
2810	0	44155	36323	36634	32515	32671	
2811	0	42240	35218	31930	32466	32775	
2812	0	38599	33837	29647	32135	32954	
2813	0	34971	32912	28844	31713	32997	
2814	0	31608	31423	28539	31599	32902	
2815	0	29067	29348	28955	32160	32719	
2816	0	28913	29006	31591	32182	32711	
2817	0	29578	30727	35546	32440	32751	
2818	0	29520	34036	39516	32839	32711	
2819	0	28142	37096	42461	33070	32873	
2820	0	26400	38686	41065	33602	32890	
2821	0	25645	39368	33128	34326	32957	
2822	0	25770	37536	27342	35127	32991	
2823	0	25339	33744	25495	35871	32932	
2824	0	24936	29190	32372	35552	32971	
2825	0	24853	25446	44288	34432	32905	
2826	0	26803	22939	49003	33011	32962	
2827	0	31192	22311	38912	32192	32997	
2828	0	35330	24132	22302	31957	32893	
2829	0	38880	27672	9760	31908	32916	
2830	0	41098	31184	5094	31933	32936	
2831	0	41662	33899	12199	31788	32962	
2832	0	39241	36494	23734	31830	32933	
2833	0	36880	38195	39756	31858	32969	
2834	0	37696	39207	48853	32217	32939	
2835	0	38453	39034	49874	32284	32946	
2836	0	37561	37129	47321	32365	32891	
2837	0	36045	34498	43755	32506	32956	
2838	0	35945	31480	38848	32454	32903	
2839	0	35218	29803	34982	32600	32775	
2840	0	32453	29629	29546	32964	32754	
2841	0	29654	30040	23393	33159	32774	
2842	0	27693	31832	18886	32811	32917	
2843	0	25633	34330	23879	32763	32955	
2844	0	25217	38066	29191	32257	32935	
2845	0	26399	41248	31028	32055	32914	
2846	0	28745	42176	32957	32164	32895	
2847	0	32212	39665	37625	32128	32741	
2848	0	35641	35408	41011	32504	32749	
2849	0	37304	30254	41017	33458	32839	
2850	0	36546	26951	38227	34075	32945	
2851	0	34706	27024	34230	34341	32853	
2852	0	31964	28797	35069	33569	32902	
2853	0	29040	30811	34751	33602	32916	
2854	0	27324	31948	31193	33573	32976	
2855	0	27836	33327	30803	32341	32948	
2856	0	29480	34245	31779	31633	32945	
2857	0	30356	34913	32880	32135	32921	
2858	0	31328	33415	29447	32482	32985	
2859	0	33543	31534	30095	32967	32699	
2860	0	35584	29541	30951	32736	32666	
2861	0	36955	28390	26664	32359	32658	
2862	0	38005	27679	25415	32510	32700	
2863	0	38237	27020	27342	32972	32684	
2864	0	37450	25120	27169	32869	32843	
2865	0	34328	25494	29115	32701	32855	
2866	0	31082	27935	35038	32986	32839	
2867	0	29877	32292	37878	33011	32892	
2868	0	28513	37083	35015	33072	32938	
2869	0	26692	40509	33831	32800	32927	
2870	0	28516	41303	36528	32890	32950	
2871	0	32386	39678	42832	32792	32940	
2872	0	35778	35890	50119	32552	32946	
2873	0	39192	32640	50695	32390	32950	
2874	0	38006	31824	38936	32402	32893	
2875	0	34389	32176	23486	32330	32922	
2876	0	30664	32886	13350	32289	32840	
2877	0	28026	33462	17637	32339	32903	
2878	0	27808	34620	23257	32403	32967	
2879	0	28960	37279	26234	32483	32888	
2880	0	30947	37246	28859	32877	32949	
2881	0	34736	35479	32064	33652	32896	
2882	0	40123	32263	38357	33948	32865	
2883	0	41688	27339	48800	33552	32973	
2884	0	41227	24251	54482	33131	32927	
2885	0	39872	24755	52823	32845	32899	
2886	0	36356	28192	35588	32400	32996	
2887	0	32361	32658	11652	32263	32980	
2888	0	30152	36504	2350	32072	32988	
2889	0	29753	40160	5629	31850	32997	
2890	0	30643	42208	22534	32541	32967	
2891	0	31296	42362	39286	32860	32920	
2892	0	31861	40491	46242	32967	33006	
2893	0	31592	36810	46727	33536	33020	
2894	0	31116	31186	45197	34448	32940	
2895	0	30433	25607	42722	34192	32953	
2896	0	29988	20780	41435	33203	32793	
2897	0	30861	19197	41784	32464	32652	
2898	0	31920	20994	42354	32263	32751	
2899	0	31817	23873	37745	31972	32724	
2900	0	30885	27287	33711	31827	32691	
2901	0	29654	31446	35937	32343	32688	
2902	0	29088	36004	31076	32942	32739	
2903	0	29300	38692	17458	32562	32688	
2904	0	30240	39558	2393	32541	32680	
2905	0	31672	38669	4533	32647	32668	
2906	0	33580	37075	11298	32928	32805	
2907	0	34294	35445	32928	32872	32757	
2908	0	35397	34894	38993	32461	32855	
2909	0	36572	35719	42834	32528	32880	
2910	0	38051	35975	43186	32865	32898	
2911	0	38478	35244	40514	32899	32897	
2912	0	37701	33519	35438	32893	32952	
2913	0	35800	32285	37250	33078	32921	
2914	0	33109	32762	41938	33342	32864	
2915	0	30479	33559	45021	33058	32751	
2916	0	30042	34100	42603	32967	32744	
2917	0	30037	34063	34418	32406	32692	
2918	0	31296	32647	27839	31970	32743	
2919	0	33732	30242	26415	31566	32835	
2920	0	35378	27474	26333	31653	32855	
2921	0	36370	26923	30120	32107	32877	
2922	0	36496	29605	35116	32928	32947	
2923	0	35398	34541	37191	33589	32978	
2924	0	32518	37694	37581	33222	32969	
2925	0	30111	37690	38438	33559	32884	
2926	0	29728	34808	39901	34157	32753	
2927	0	29010	31209	39046	34503	32701	
2928	0	27968	26770	33856	33973	32745	
2929	0	26731	24252	29654	33273	32711	
2930	0	27021	22874	22372	32856	32837	
2931	0	28474	23452	9505	32520	32882	
2932	0	30658	25906	4851	31711	32966	
2933	0	33226	29698	8061	31815	32866	
2934	0	37392	33824	23256	31710	32696	
2935	0	39784	37544	32775	32256	32722	
2936	0	40610	39619	35761	32347	32698	
2937	0	38970	39168	42402	32536	32765	
2938	0	35784	36239	47060	32652	32805	
2939	0	33528	32726	47828	32845	32824	
2940	0	32333	31200	48799	32537	32861	
2941	0	31517	31999	46766	32717	32839	
2942	0	30768	33306	37722	32390	32736	
2943	0	29505	34946	31184	32472	32758	
2944	0	27812	36847	32824	32788	32748	
2945	0	26448	37264	37344	32581	32770	
2946	0	25636	36730	39875	32593	32800	
2947	0	25580	36315	42191	32506	32920	
2948	0	26818	34712	40946	32552	32806	
2949	0	27729	33644	32229	32946	32673	
2950	0	28779	33109	20577	33032	32723	
2951	0	30107	32397	16200	33431	32743	
2952	0	32498	30707	24041	33069	32740	
2953	0	36025	30406	32021	32683	32680	
2954	0	39600	30838	36183	32479	32680	
2955	0	40391	32601	37663	32571	32803	
2956	0	39912	33956	33338	32991	32952	
2957	0	39047	33697	24406	33100	32967	
2958	0	37418	32101	20454	32967	32993	
2959	0	35293	30141	19343	32813	32907	
2960	0	34362	28825	21334	32985	32896	
2961	0	34135	28538	25949	33069	32922	
2962	0	34064	29200	32337	33268	32775	
2963	0	33656	30572	36811	32758	32755	
2964	0	33060	33391	38571	32724	32717	
2965	0	33610	34903	39221	32954	32902	
2966	0	36418	35118	41563	33117	32835	
2967	0	38288	33405	43814	32891	32729	
2968	0	39005	31576	46049	32819	32665	
2969	0	38603	30831	43341	32516	32683	
2970	0	35674	30757	41472	32400	32647	
2971	0	31756	32393	41870	32493	32680	
2972	0	30632	33581	40443	32845	32666	
2973	0	29897	35334	29710	33641	32795	
2974	0	29304	36724	15104	33226	32950	
2975	0	27894	35919	13647	33089	32922	
2976	0	26738	34159	20747	32430	32918	
2977	0	26506	32413	30472	32050	32860	
2978	0	26978	31479	32487	31904	32743	
2979	0	29028	33399	30736	32384	32717	
2980	0	31292	34770	29453	32604	32761	
2981	0	32181	35655	28307	33026	32821	
2982	0	33836	35507	27103	33117	32911	
2983	0	36978	34809	27909	32558	32809	
2984	0	38848	33128	34023	32850	32775	
2985	0	37108	32123	41434	33384	32775	
2986	0	33430	32215	43292	33467	32775	
2987	0	30215	32282	43368	33175	32797	
2988	0	25773	32019	42712	32805	32753	
2989	0	21402	30724	38066	32464	32683	
2990	0	19394	29358	31869	32233	32795	
2991	0	19652	27554	29093	32696	32739	
2992	0	21595	27419	32530	32664	32798	
2993	0	24650	29271	36985	32431	32948	
2994	0	28044	31941	38507	32192	33057	
2995	0	32228	35700	32106	32261	32998	
2996	0	38354	39552	19824	32313	32928	
2997	0	45912	42576	19048	32800	32979	
2998	0	51200	43390	23508	33017	32941	
2999	0	53125	40391	26960	33221	33024	
3000	0	50260	35205	34082	33440	33006	
3001	0	46710	28827	42788	33606	32959	
3002	0	43655	23697	42610	33596	32907	
3003	0	39412	20367	37282	33160	32932	
3004	0	33560	19933	36834	32465	32933	
3005	0	27720	21952	36403	32227	32967	
3006	0	23430	25154	32889	32477	33000	
3007	0	21425	29036	29631	32839	32903	
3008	0	22036	31473	34003	32724	32848	
3009	0	22872	32642	35542	32599	32839	
3010	0	24076	33442	24212	32412	32676	
3011	0	25535	34971	12989	32521	32675	
3012	0	28176	37408	16409	32362	32648	
3013	0	30400	39600	26353	32393	32700	
3014	0	31876	40434	35645	32274	32676	
3015	0	31898	38755	40180	32577	32688	
3016	0	31554	36110	42395	32839	32849	
3017	0	32741	32202	46112	32978	32875	
3018	0	35928	29533	49272	32872	32861	
3019	0	38212	29167	50013	33164	32819	
3020	0	40293	30768	47698	32736	32694	
3021	0	42232	32558	37612	32348	32700	
3022	0	42443	34504	18955	32792	32832	
3023	0	42062	34948	5740	32664	32907	
3024	0	41125	33898	8338	32567	32909	
3025	0	41646	31363	21774	32227	32985	
3026	0	41317	31088	31859	32572	32960	
3027	0	37916	32832	38027	33116	32895	
3028	0	32448	34390	43664	33553	32728	
3029	0	27052	34525	44811	33507	32713	
3030	0	21762	34311	40324	33382	32753	
3031	0	17960	32806	34813	33528	32903	
3032	0	16868	31782	35687	33686	32965	
3033	0	18016	32632	36242	33167	32930	
3034	0	21952	32671	35963	33011	32922	
3035	0	28524	32565	32997	32869	32893	
3036	0	35827	32647	30308	32964	32848	
3037	0	41381	33508	32846	32694	32747	
3038	0	44068	34920	28103	32150	32748	
3039	0	43988	36036	18012	31815	32924	
3040	0	40936	34918	14106	32140	32929	
3041	0	36091	32402	20964	32803	32926	
3042	0	31298	29599	32354	33840	32948	
3043	0	25908	27509	41680	33995	32988	
3044	0	23243	27507	46134	33552	32958	
3045	0	21897	28490	45408	32869	32958	
3046	0	22085	28843	44121	32601	32894	
3047	0	24071	30102	40940	32741	32813	
3048	0	27660	31764	38032	32395	32787	
3049	0	31937	33273	37373	32079	32615	
3050	0	36608	35331	34112	31672	32711	
3051	0	39988	38118	24735	31768	32772	
3052	0	42620	39529	18919	32022	32792	
3053	0	44324	39915	21575	32482	32895	
3054	0	44067	39286	25027	32851	32961	
3055	0	42219	37458	26258	33203	32935	
3056	0	38768	34695	30029	33411	32910	
3057	0	33862	30536	37734	33396	32804	
3058	0	28694	27344	42987	32983	32729	
3059	0	24784	27517	41299	32821	32775	
3060	0	24308	28354	32134	32787	32858	
3061	0	25536	29440	21165	32567	32908	
3062	0	26950	28672	17916	32391	32915	
3063	0	27470	28615	18157	32850	32863	
3064	0	31320	29566	29262	33244	32896	
3065	0	36660	30546	42394	33266	32869	
3066	0	40089	31884	47271	33142	32885	
3067	0	41339	33496	43771	32680	32825	
3068	0	40371	34563	37742	32696	32787	
3069	0	38274	35920	29821	32674	32722	
3070	0	32871	36582	24139	32754	32863	
3071	0	27302	36449	28474	32621	32808	
3072	0	24723	35777	34987	32695	32911	
3073	0	25362	34486	38509	32775	32903	
3074	0	27744	32651	40340	32775	32785	
3075	0	30812	31587	43237	32403	32790	
3076	0	34706	31013	39791	32362	32672	
3077	0	37836	32881	31482	32282	32723	
3078	0	40514	35175	29213	32315	32697	
3079	0	42512	35939	27284	32464	32771	
3080	0	42744	35168	23851	32358	32869	
3081	0	40698	34356	20223	32825	32837	
3082	0	38008	32896	26429	33234	32915	
3083	0	32820	30928	34281	33400	32918	
3084	0	27856	28300	38894	33527	32942	
3085	0	26576	27114	43077	33283	32929	
3086	0	26548	26576	41017	32829	32897	
3087	0	25392	26347	34973	32548	32861	
3088	0	24860	26861	31211	32281	32902	
3089	0	25158	28700	37063	32846	32952	
3090	0	26981	32412	43345	33330	32861	
3091	0	28920	35779	43278	33040	32681	
3092	0	31096	37984	36024	33366	32718	
3093	0	33964	38331	25148	33424	32738	
3094	0	37176	36975	22211	32488	32764	
3095	0	39472	36038	19615	32300	32905	
3096	0	40826	35325	18968	32379	32923	
3097	0	40019	33266	21106	32873	32867	
3098	0	37833	30839	25529	33360	32983	
3099	0	34721	28270	33434	32795	33015	
3100	0	31335	26927	37703	32711	33014	
3101	0	27874	27226	43804	32853	32996	
3102	0	26555	28295	47442	33115	32939	
3103	0	26324	31123	44117	33523	32950	
3104	0	28115	33586	40197	32789	32973	
3105	0	30707	35419	36491	32132	32981	
3106	0	32064	36694	31156	31723	32946	
3107	0	30536	37718	25601	31608	33012	
3108	0	28861	37840	19692	32100	32985	
3109	0	28150	36519	24343	32345	32944	
3110	0	27364	34787	28208	32914	32936	
3111	0	27977	33242	27891	33120	32899	
3112	0	32168	32052	31426	33268	32865	
3113	0	36660	31684	34987	33320	32762	
3114	0	39376	30463	34759	33592	32647	
3115	0	40688	29902	32647	33387	32707	
3116	0	40246	30215	32902	32395	32910	
3117	0	39186	31171	31279	32121	33010	
3118	0	37941	32117	27264	32281	32967	
3119	0	37682	32903	30502	32504	32962	
3120	0	37465	33477	39791	32462	32952	
3121	0	38035	33417	46066	32725	32929	
3122	0	37654	33081	46332	32927	32879	
3123	0	35876	31878	43427	33131	32953	
3124	0	33536	31181	40001	32933	32972	
3125	0	30914	30658	37086	32293	32985	
3126	0	29511	30356	28697	32361	32984	
3127	0	28672	31382	23184	32996	32945	
3128	0	27096	34098	22369	33424	32890	
3129	0	25105	36588	25174	33146	32731	
3130	0	23107	37515	27960	32827	32713	
3131	0	23366	37042	30364	33059	32717	
3132	0	25528	36918	28435	32703	32667	
3133	0	29042	36691	29294	32703	32678	
3134	0	32066	36208	33271	32726	32688	
3135	0	34100	34255	38782	32704	32713	
3136	0	34984	30426	45874	32996	32666	
3137	0	35813	27776	47775	33711	32731	
3138	0	35952	26345	39076	33818	32759	
3139	0	36124	26602	23782	33392	32721	
3140	0	35716	28189	14772	33056	32688	
3141	0	34652	29313	12717	32597	32748	
3142	0	33482	30141	21344	33158	32749	
3143	0	33336	31460	32664	32745	32674	
3144	0	32158	31951	36577	32131	32859	
3145	0	31330	32436	34273	32146	32787	
3146	0	31780	33075	32923	32386	32883	
3147	0	32511	35399	32821	32583	32914	
3148	0	34150	37986	32263	32797	32925	
3149	0	35224	39457	37959	32809	32909	
3150	0	36264	38614	44567	32638	32832	
3151	0	36798	37425	48607	32726	32859	
3152	0	37360	35079	48235	32899	32955	
3153	0	36922	33432	43090	33043	32927	
3154	0	34840	31890	35401	32815	32930	
3155	0	35090	29613	24064	32367	32987	
3156	0	33778	27837	27576	31832	32955	
3157	0	31018	26971	39653	31868	32882	
3158	0	28544	27000	47571	32157	32692	
3159	0	26484	28182	39176	32536	32726	
3160	0	26200	29971	14416	32544	32977	
3161	0	27380	32422	1665	32839	32960	
3162	0	29108	35658	4032	33202	32953	
3163	0	31112	38422	17133	33240	32984	
3164	0	33152	39943	30255	32946	32963	
3165	0	35706	39295	36451	32899	32950	
3166	0	38092	36927	40722	33304	32937	
3167	0	38978	34845	44576	33285	32899	
3168	0	38280	32611	44386	33145	32775	
3169	0	36166	30759	40613	33235	32799	
3170	0	32834	28220	35218	32938	32672	
3171	0	30277	26605	35235	32275	32775	
