# OpenSignals Text File Format
# {"00:07:80:3B:46:63": {"sensor": ["EMG", "EMG", "EMG", "EMG", "EMG"], "device name": "00:07:80:3B:46:63", "column": ["nSeq", "DI", "CH1", "CH2", "CH3", "CH4", "CH5"], "sync interval": 2, "time": "13:1:50.569", "comments": "", "device connection": "BTH00:07:80:3B:46:63", "channels": [1, 2, 3, 4, 5], "date": "2017-4-28", "mode": 0, "digital IO": [0, 1], "firmware version": 770, "device": "biosignalsplux", "position": 0, "sampling rate": 1000, "label": ["CH1", "CH2", "CH3", "CH4", "CH5"], "resolution": [16, 16, 16, 16, 16], "special": [{}, {}, {}, {}, {}]}}
# EndOfHeader
0	0	32744	32551	32656	33743	32976	
1	0	32757	32453	32750	32807	32651	
2	0	32749	32414	32805	32391	32075	
3	0	32797	32575	32616	32183	32476	
4	0	32775	32486	32707	32177	33051	
5	0	32871	32467	32659	32128	33079	
6	0	32823	32534	32747	32386	32859	
7	0	32775	32698	32797	32471	32708	
8	0	32800	32821	32671	32732	32813	
9	0	32775	32685	32711	33029	33235	
10	0	32838	32792	32612	33069	33287	
11	0	32775	32839	32698	33068	32891	
12	0	32695	32671	32599	32987	32635	
13	0	32699	32903	32818	32849	32711	
14	0	32785	32789	32799	32581	32705	
15	0	32710	32623	32624	32513	32847	
16	0	32731	32863	32691	32877	32899	
17	0	32706	32651	32619	32755	33047	
18	0	32774	32478	32738	32907	32769	
19	0	32766	32681	32639	32791	32882	
20	0	32745	32770	32787	32615	32475	
21	0	32793	32607	32726	32658	32615	
22	0	32848	32691	32802	32623	33025	
23	0	32948	32627	32789	32850	33165	
24	0	32951	32365	32685	33007	32811	
25	0	32869	32569	32710	32949	32923	
26	0	32833	32566	32629	32770	32417	
27	0	32744	32751	32741	33426	32848	
28	0	32746	32839	32629	33351	33249	
29	0	32697	32550	32697	32923	32987	
30	0	32724	32687	32609	32730	33367	
31	0	32736	32647	32711	32455	32319	
32	0	32799	32455	32591	32690	32568	
33	0	32775	32511	32747	32711	33191	
34	0	32708	32549	32607	32966	33129	
35	0	32828	32681	32747	32999	32518	
36	0	32818	32608	32683	33136	32847	
37	0	32752	32567	32735	32886	32931	
38	0	32774	32867	32747	32759	32745	
39	0	32770	32827	32775	32954	32619	
40	0	32801	32709	32787	32877	32894	
41	0	32800	32805	32750	32831	33253	
42	0	32838	32647	32756	32711	33165	
43	0	32805	32825	32759	32601	32871	
44	0	32737	32731	32775	32551	32633	
45	0	32759	32583	32799	32418	32933	
46	0	32812	32666	32721	32415	32839	
47	0	32864	32377	32735	32754	32775	
48	0	32784	32539	32743	32815	32801	
49	0	32794	32559	32755	32612	32687	
50	0	32838	32605	32631	32731	32595	
51	0	32790	32747	32543	32955	33109	
52	0	32724	32507	32677	33242	33277	
53	0	32745	32661	32737	33121	32637	
54	0	32726	32775	32775	32903	32683	
55	0	32700	32637	32656	32839	32803	
56	0	32701	32679	32775	33027	33110	
57	0	32742	32590	32717	32771	32493	
58	0	32711	32643	32571	32835	32694	
59	0	32738	32550	32819	33062	33063	
60	0	32801	32631	32696	32967	32754	
61	0	32819	32512	32577	32767	33075	
62	0	32876	32650	32775	32356	32843	
63	0	32861	32581	32727	32127	32743	
64	0	32845	32907	32570	31935	33217	
65	0	32922	32757	32737	31739	33091	
66	0	32797	32719	32742	32701	32391	
67	0	32839	32555	32647	33127	32117	
68	0	32796	32671	32775	33086	32753	
69	0	32775	32751	32759	33261	33377	
70	0	32771	32660	32583	33027	32693	
71	0	32712	32647	32813	32891	32711	
72	0	32748	32755	32775	33168	32997	
73	0	32755	32695	32603	32510	33219	
74	0	32818	32635	32775	32381	32807	
75	0	32803	32489	32701	32621	32655	
76	0	32870	32531	32775	32643	32919	
77	0	32820	32626	32527	32638	32957	
78	0	32747	32615	32754	32467	33003	
79	0	32744	32679	32749	32575	33025	
80	0	32756	32502	32695	32749	33107	
81	0	32760	32671	32775	32659	33267	
82	0	32772	32583	32695	32349	32973	
83	0	32809	32591	32729	32055	32581	
84	0	32732	32455	32663	32327	32919	
85	0	32770	32723	32681	32480	33055	
86	0	32809	32614	32775	32616	32989	
87	0	32789	32647	32650	32551	32775	
88	0	32821	32658	32775	32775	33063	
89	0	32775	32833	32715	32895	33243	
90	0	32788	32775	32653	32915	33201	
91	0	32758	32829	32697	32918	32499	
92	0	32752	32743	32762	32973	32662	
93	0	32790	32775	32825	32929	32704	
94	0	32786	32797	32631	32703	32573	
95	0	32744	32723	32743	32413	33015	
96	0	32775	32562	32775	32183	33107	
97	0	32774	32807	32607	32223	33317	
98	0	32740	32675	32734	32253	32547	
99	0	32635	32675	32829	32255	32390	
100	0	32757	32425	32578	32417	32891	
101	0	32722	32675	32690	32753	33077	
102	0	32811	32559	32757	32987	33103	
103	0	32696	32487	32583	33287	33113	
104	0	32708	32743	32757	33613	33081	
105	0	32701	32711	32747	33539	32775	
106	0	32775	32647	32667	33894	32933	
107	0	32775	32510	32645	33764	33001	
108	0	32838	32865	32667	33223	32735	
109	0	32838	32775	32733	32949	32887	
110	0	32845	32731	32743	32999	32617	
111	0	32879	32711	32590	33027	32976	
112	0	32856	32827	32795	33223	33223	
113	0	32880	32655	32711	33143	32521	
114	0	32899	32711	32581	32767	32459	
115	0	32891	32704	32775	32567	32824	
116	0	32804	32803	32775	32327	32809	
117	0	32834	32711	32686	32306	32639	
118	0	32801	32383	32711	32455	32791	
119	0	32699	32479	32625	32414	32939	
120	0	32759	32419	32711	32523	32838	
121	0	32689	32287	32690	32607	33170	
122	0	32704	32571	32741	32535	32795	
123	0	32740	32561	32801	32495	32561	
124	0	32759	32723	32662	32839	32827	
125	0	32756	32591	32711	32991	32975	
126	0	32734	32807	32613	33127	32441	
127	0	32745	32837	32719	33039	32725	
128	0	32792	32647	32717	32974	32746	
129	0	32765	32839	32767	32774	33115	
130	0	32715	32726	32775	32576	32887	
131	0	32744	32591	32663	32557	32903	
132	0	32770	32690	32658	32567	32914	
133	0	32832	32510	32593	32285	32978	
134	0	32786	32415	32729	32304	32851	
135	0	32775	32377	32739	32599	33087	
136	0	32770	32396	32767	32594	32120	
137	0	32744	32602	32806	32775	32607	
138	0	32710	32511	32773	32751	32991	
139	0	32727	32423	32751	32891	32891	
140	0	32682	32698	32590	32903	32561	
141	0	32720	32671	32733	32553	32935	
142	0	32824	32749	32686	32315	32702	
143	0	32853	32707	32751	32398	32907	
144	0	32836	32637	32744	32511	32775	
145	0	32805	32717	32751	32679	32995	
146	0	32818	32603	32705	32791	33110	
147	0	32863	32839	32749	32935	32976	
148	0	32730	32805	32711	32839	32551	
149	0	32739	32839	32812	32859	32671	
150	0	32760	32707	32805	32775	32797	
151	0	32722	32667	32711	32653	33039	
152	0	32699	32803	32799	32519	32967	
153	0	32801	32825	32679	32401	32823	
154	0	32820	32797	32747	32415	32727	
155	0	32770	32579	32727	32535	32979	
156	0	32751	32626	32823	32618	33135	
157	0	32799	32793	32646	32658	32837	
158	0	32775	32747	32623	32740	32711	
159	0	32749	32771	32733	33007	32803	
160	0	32755	32717	32703	33127	32501	
161	0	32839	32681	32737	33113	32827	
162	0	32811	32675	32751	33053	32985	
163	0	32791	32595	32607	33645	33017	
164	0	32775	32387	32591	33373	32601	
165	0	32784	32592	32711	32751	32875	
166	0	32803	32579	32771	32599	32887	
167	0	32784	32693	32690	33002	33093	
168	0	32833	32701	32733	33115	33168	
169	0	32751	32411	32789	33010	32647	
170	0	32767	32607	32711	32941	32471	
171	0	32733	32647	32821	32867	33139	
172	0	32796	32499	32681	32651	32829	
173	0	32755	32439	32647	32659	32765	
174	0	32756	32583	32711	32555	33151	
175	0	32800	32659	32752	32486	32863	
176	0	32746	32659	32661	32333	32183	
177	0	32740	32771	32599	32489	33055	
178	0	32742	32949	32549	32679	32918	
179	0	32725	33057	32743	32699	32935	
180	0	32784	32691	32819	32499	32775	
181	0	32801	32671	32723	32583	33010	
182	0	32791	32688	32735	32543	32439	
183	0	32747	32543	32737	32583	33119	
184	0	32813	32535	32747	32532	33184	
185	0	32840	32531	32702	32646	33072	
186	0	32784	32343	32604	32726	32504	
187	0	32775	32530	32641	32427	32837	
188	0	32809	32735	32641	32438	32775	
189	0	32782	32663	32727	33110	33010	
190	0	32861	32691	32775	33405	32791	
191	0	32873	32603	32685	33043	32489	
192	0	32775	32533	32706	32891	32695	
193	0	32843	32623	32775	33140	32816	
194	0	32755	32583	32638	33599	32918	
195	0	32727	32679	32647	33643	32999	
196	0	32754	32824	32775	33389	32752	
197	0	32720	32647	32741	33143	33078	
198	0	32741	32570	32730	32711	32822	
199	0	32726	32726	32633	32349	32829	
200	0	32813	32775	32654	32493	32603	
201	0	32868	32551	32803	32715	32803	
202	0	32836	32805	32775	32493	32883	
203	0	32816	32765	32807	32671	33056	
204	0	32762	32831	32741	32691	33067	
205	0	32800	32831	32701	32671	32503	
206	0	32698	32691	32730	32315	32989	
207	0	32699	32771	32695	32411	32961	
208	0	32761	32600	32767	32487	32789	
209	0	32753	32822	32694	32839	32882	
210	0	32817	32723	32791	33248	33031	
211	0	32855	32801	32667	33223	32987	
212	0	32792	32709	32709	32935	32339	
213	0	32730	32598	32710	32658	32629	
214	0	32784	32508	32743	32817	33159	
215	0	32808	32439	32731	33152	33592	
216	0	32813	32655	32813	32879	32471	
217	0	32756	32539	32761	32769	32327	
218	0	32749	32609	32757	32859	32615	
219	0	32726	32551	32788	33139	32641	
220	0	32769	32711	32789	33430	33091	
221	0	32774	32679	32595	33414	33111	
222	0	32837	32639	32738	33259	32621	
223	0	32787	32647	32711	33083	32919	
224	0	32786	32679	32693	32863	33239	
225	0	32775	32447	32662	32525	33299	
226	0	32844	32327	32663	32295	32741	
227	0	32763	32297	32759	32040	32753	
228	0	32695	32409	32726	31997	32696	
229	0	32726	32219	32770	32109	32722	
230	0	32713	32263	32687	32387	32768	
231	0	32793	32091	32691	32647	32972	
232	0	32733	32447	32747	32653	33023	
233	0	32775	32455	32655	32935	33037	
234	0	32767	32711	32723	32813	32417	
235	0	32809	32643	32789	32482	32771	
236	0	32837	32745	32583	32331	33067	
237	0	32898	32825	32757	32263	33091	
238	0	32852	32711	32775	32427	32917	
239	0	32910	32775	32583	32551	32835	
240	0	32805	32647	32759	32510	32973	
241	0	32800	32839	32637	32445	32987	
242	0	32723	32799	32703	32423	32517	
243	0	32770	32819	32822	32946	32821	
244	0	32727	32671	32747	33667	32867	
245	0	32750	32873	32699	34439	32836	
246	0	32711	32823	32802	34407	32827	
247	0	32729	32915	32723	34371	32933	
248	0	32701	32696	32720	33938	32856	
249	0	32768	32883	32711	32747	32681	
250	0	32856	32775	32707	32239	33166	
251	0	32770	32775	32638	32295	33185	
252	0	32792	32658	32685	32557	32487	
253	0	32753	32801	32751	33626	32839	
254	0	32733	32679	32537	33531	33039	
255	0	32726	32743	32775	32733	32931	
256	0	32698	32534	32769	31563	32727	
257	0	32678	32647	32527	31335	32974	
258	0	32737	32583	32675	31586	32863	
259	0	32760	32531	32569	32061	32409	
260	0	32732	32533	32746	32774	32581	
261	0	32792	32435	32653	33679	32943	
262	0	32775	32598	32759	33911	33037	
263	0	32729	32530	32775	33819	32981	
264	0	32705	32429	32775	33397	32679	
265	0	32696	32625	32735	32856	32818	
266	0	32688	32661	32667	32591	32895	
267	0	32771	32511	32751	32107	32957	
268	0	32740	32763	32583	31890	33018	
269	0	32762	32775	32738	32111	32963	
270	0	32773	32563	32703	32612	32769	
271	0	32789	32617	32711	32765	32625	
272	0	32763	32647	32795	32851	33087	
273	0	32749	32715	32694	32658	32923	
274	0	32765	32679	32793	32853	32711	
275	0	32792	32505	32599	33251	32566	
276	0	32785	32587	32735	32775	32599	
277	0	32869	32647	32678	32695	33073	
278	0	32785	32726	32743	32599	33087	
279	0	32796	32687	32730	32566	32255	
280	0	32825	32647	32687	32577	32855	
281	0	32845	32815	32720	32495	32799	
282	0	32813	32903	32606	32759	32955	
283	0	32775	32745	32737	32599	32591	
284	0	32758	32711	32790	32582	32471	
285	0	32842	32530	32637	32955	32820	
286	0	32819	32563	32711	33787	32935	
287	0	32800	32498	32537	33249	33133	
288	0	32813	32403	32731	32941	32953	
289	0	32790	32403	32757	32827	32999	
290	0	32741	32453	32677	32805	33082	
291	0	32753	32629	32623	32795	32963	
292	0	32708	32667	32594	32877	32807	
293	0	32742	32543	32745	32603	32886	
294	0	32775	32731	32647	32459	32758	
295	0	32711	32807	32752	32414	32557	
296	0	32821	32707	32839	32579	32932	
297	0	32851	32749	32639	32775	32719	
298	0	32866	32551	32700	33047	32683	
299	0	32816	32807	32582	33435	32826	
300	0	32841	32743	32731	33202	32925	
301	0	32816	32561	32545	33031	33278	
302	0	32827	32627	32707	32725	33142	
303	0	32788	32519	32643	32293	32421	
304	0	32775	32767	32791	31833	32237	
305	0	32816	32723	32673	32179	32889	
306	0	32742	32635	32663	32443	32824	
307	0	32784	32822	32654	32237	32917	
308	0	32800	32647	32757	32303	33075	
309	0	32715	32682	32641	32623	33035	
310	0	32758	32615	32696	33345	32606	
311	0	32738	32567	32711	34083	32511	
312	0	32750	32455	32759	34904	32946	
313	0	32765	32832	32711	35113	33175	
314	0	32756	32821	32754	34384	32553	
315	0	32756	32611	32639	33467	32895	
316	0	32868	32607	32711	32750	33049	
317	0	32878	32711	32527	32315	32589	
318	0	32775	32799	32737	31399	32865	
319	0	32770	32833	32669	31143	32891	
320	0	32735	32590	32767	31346	32807	
321	0	32723	32701	32775	31643	32694	
322	0	32747	32775	32775	31977	32775	
323	0	32738	32547	32775	32805	32887	
324	0	32759	32529	32609	33147	32960	
325	0	32860	32463	32711	33173	32902	
326	0	32918	32643	32647	32952	32602	
327	0	32872	32605	32697	32799	32595	
328	0	32758	32432	32531	32991	32903	
329	0	32747	32614	32667	33211	33083	
330	0	32768	32629	32735	33720	32917	
331	0	32772	32515	32704	33797	32831	
332	0	32765	32550	32755	33163	32763	
333	0	32775	32473	32581	32591	32770	
334	0	32709	32669	32735	32135	32711	
335	0	32696	32670	32802	32199	32941	
336	0	32736	32749	32759	32199	33010	
337	0	32729	32791	32809	31999	32861	
338	0	32732	32821	32614	31643	32591	
339	0	32775	32797	32731	31450	32723	
340	0	32775	32863	32647	31852	32895	
341	0	32853	32687	32775	32659	32963	
342	0	32836	32615	32551	33202	32966	
343	0	32775	32647	32730	33283	32850	
344	0	32775	32619	32667	33955	32827	
345	0	32839	32827	32711	34335	32919	
346	0	32817	32727	32583	34352	32971	
347	0	32869	32711	32629	33814	33005	
348	0	32944	32685	32524	32743	32669	
349	0	33026	32815	32631	31931	32703	
350	0	33068	32775	32537	32039	32843	
351	0	32930	32681	32629	32551	32909	
352	0	33004	32923	32539	32990	32775	
353	0	33018	32787	32723	33287	32952	
354	0	33122	32869	32543	33211	33065	
355	0	33088	32847	32614	34094	32775	
356	0	33104	32802	32467	33939	32615	
357	0	33055	32793	32543	33427	33219	
358	0	33003	32797	32711	32617	32941	
359	0	33000	32655	32742	31611	32604	
360	0	32987	32651	32775	31301	32455	
361	0	32982	32565	32757	31523	32766	
362	0	32895	32337	32667	32215	32283	
363	0	32827	32353	32719	32563	33073	
364	0	32761	32283	32615	32509	32963	
365	0	32601	32453	32737	32835	32499	
366	0	32493	32473	32655	32126	32625	
367	0	32448	32306	32775	31988	32793	
368	0	32350	32438	32706	31815	32865	
369	0	32320	32370	32807	31433	32999	
370	0	32332	32573	32757	32009	32983	
371	0	32205	32618	32902	33103	32809	
372	0	32272	32655	32750	34203	32863	
373	0	32263	32573	32847	35039	32914	
374	0	32302	32563	32739	34469	33069	
375	0	32406	32831	32889	34347	33048	
376	0	32431	32894	32879	34367	33060	
377	0	32428	32807	32861	33351	32935	
378	0	32408	32913	32903	32510	32796	
379	0	32497	32839	32775	32099	32723	
380	0	32545	32599	32773	31943	33083	
381	0	32594	32743	32640	31999	32907	
382	0	32642	32699	32773	32345	32889	
383	0	32647	32531	32667	32950	32962	
384	0	32840	32735	32717	33858	33186	
385	0	32960	32839	32701	33762	33093	
386	0	32962	32850	32573	32959	32707	
387	0	32924	32699	32618	31846	32694	
388	0	32936	32583	32567	31495	32516	
389	0	32960	32709	32647	32007	32832	
390	0	33013	32617	32514	32411	33095	
391	0	32995	32691	32615	32515	32677	
392	0	33000	32555	32467	32263	32909	
393	0	33016	32525	32675	32215	32631	
394	0	32953	32608	32722	32717	32509	
395	0	32957	32498	32669	32647	32882	
396	0	32973	32400	32707	32513	33069	
397	0	32939	32647	32639	32543	33013	
398	0	32805	32740	32733	32591	33013	
399	0	32833	32898	32583	32710	33079	
400	0	32857	32737	32647	32695	32634	
401	0	32870	32639	32558	32736	32705	
402	0	32781	32823	32621	32883	32827	
403	0	32775	32850	32662	32763	32690	
404	0	32804	32822	32662	32535	32871	
405	0	32834	32845	32775	31737	32711	
406	0	32792	32811	32795	31965	32921	
407	0	32732	32519	32720	32087	32913	
408	0	32680	32722	32573	32375	32749	
409	0	32742	32763	32711	32538	32751	
410	0	32745	32801	32663	32067	32930	
411	0	32824	32711	32767	32726	32995	
412	0	32800	32412	32637	33625	32947	
413	0	32834	32369	32784	35447	32960	
414	0	32797	32199	32598	36610	32509	
415	0	32801	32307	32725	34921	32367	
416	0	32732	32175	32677	33313	32709	
417	0	32672	32006	32711	32203	32759	
418	0	32701	32161	32581	31895	32719	
419	0	32832	32417	32775	31911	32737	
420	0	32860	32476	32839	32694	32743	
421	0	32896	32215	32763	32917	32503	
422	0	32835	32557	32587	32793	32646	
423	0	32749	32795	32698	32334	32613	
424	0	32809	32857	32691	32347	32663	
425	0	32732	32891	32790	32123	32735	
426	0	32652	32775	32711	31804	32809	
427	0	32764	32990	32773	32391	32989	
428	0	32732	32867	32822	32614	33063	
429	0	32752	32711	32630	32717	33119	
430	0	32740	32903	32738	32611	33086	
431	0	32800	32918	32605	32447	32947	
432	0	32813	32775	32707	32425	32963	
433	0	32775	32809	32615	32222	33129	
434	0	32761	32791	32717	32339	33191	
435	0	32775	32983	32619	32253	32890	
436	0	32792	32865	32695	32341	32353	
437	0	32710	32695	32591	32367	32743	
438	0	32784	32887	32704	33119	32907	
439	0	32768	32837	32641	34117	32854	
440	0	32793	32822	32765	34282	33042	
441	0	32775	32706	32678	34055	33025	
442	0	32796	32577	32711	33287	32941	
443	0	32816	32679	32775	32925	33035	
444	0	32798	32570	32627	32406	32965	
445	0	32740	32370	32734	32407	32744	
446	0	32736	32623	32642	32466	32997	
447	0	32721	32607	32763	32861	32925	
448	0	32775	32645	32717	32509	32635	
449	0	32704	32607	32743	32149	32807	
450	0	32711	32510	32674	32291	32699	
451	0	32871	32451	32662	32479	32638	
452	0	32862	32495	32755	32613	32979	
453	0	32839	32659	32733	32971	32657	
454	0	32850	32633	32655	33117	33047	
455	0	32876	32595	32711	33387	32977	
456	0	32856	32609	32727	33575	33021	
457	0	32805	32687	32790	33821	32873	
458	0	32792	32481	32721	33767	32717	
459	0	32755	32479	32571	32995	32871	
460	0	32757	32669	32669	32210	32821	
461	0	32741	32715	32775	31623	32947	
462	0	32744	32755	32787	31510	32719	
463	0	32816	32815	32754	31259	32803	
464	0	32835	32863	32789	31861	32855	
465	0	32808	32749	32719	32793	32929	
466	0	32784	32899	32715	33281	32813	
467	0	32771	33039	32706	34346	32772	
468	0	32752	32954	32718	35671	32595	
469	0	32697	32888	32717	35121	33067	
470	0	32752	32911	32725	33799	32535	
471	0	32775	32851	32759	33019	33111	
472	0	32805	32709	32723	32661	33063	
473	0	32757	32647	32751	32301	32983	
474	0	32733	32263	32799	31629	32867	
475	0	32760	32345	32635	32071	32757	
476	0	32765	32339	32551	33255	32857	
477	0	32805	32237	32551	33095	32878	
478	0	32750	32323	32667	32461	32839	
479	0	32742	32455	32763	31989	33202	
480	0	32774	32439	32763	31639	32775	
481	0	32809	32397	32717	32251	32767	
482	0	32750	32479	32675	32291	32675	
483	0	32757	32639	32775	32322	32951	
484	0	32770	32563	32771	32669	32564	
485	0	32781	32655	32627	32939	32789	
486	0	32772	32749	32653	33415	32599	
487	0	32832	32519	32765	33193	32949	
488	0	32774	32751	32722	32811	32834	
489	0	32818	32635	32733	32749	32827	
490	0	32817	32722	32710	32751	33058	
491	0	32802	32835	32663	32989	32727	
492	0	32730	32603	32565	33009	33027	
493	0	32767	32698	32743	32885	33068	
494	0	32804	32723	32767	32583	32647	
495	0	32789	32775	32767	32475	32967	
496	0	32768	32513	32819	32551	33255	
497	0	32757	32733	32599	32699	32722	
498	0	32770	32687	32709	32963	32325	
499	0	32829	32591	32561	32855	32743	
500	0	32821	32487	32681	32813	32955	
501	0	32736	32741	32635	32775	32975	
502	0	32768	32659	32795	32759	33227	
503	0	32792	32722	32773	32719	32631	
504	0	32824	32839	32629	32865	32489	
505	0	32867	32754	32726	33083	32865	
506	0	32874	32706	32615	32927	33034	
507	0	32909	32815	32750	32839	33039	
508	0	32815	32758	32709	32751	32743	
509	0	32784	32630	32755	32567	32455	
510	0	32718	32807	32675	32495	32877	
511	0	32739	32775	32729	32759	33127	
512	0	32767	32599	32643	32775	32301	
513	0	32789	32759	32775	32653	32994	
514	0	32765	32647	32746	32707	32854	
515	0	32796	32627	32694	32884	33395	
516	0	32775	32471	32726	33062	32985	
517	0	32772	32695	32627	32798	32321	
518	0	32787	32627	32707	32519	32807	
519	0	32765	32498	32617	32421	32839	
520	0	32775	32595	32698	32687	32707	
521	0	32848	32543	32583	32709	32831	
522	0	32837	32381	32725	33109	32899	
523	0	32753	32544	32647	33032	32805	
524	0	32753	32525	32775	33435	32775	
525	0	32774	32487	32769	33427	32726	
526	0	32775	32642	32687	33415	32919	
527	0	32732	32719	32752	32959	32982	
528	0	32768	32583	32664	32977	32839	
529	0	32730	32827	32775	33257	32937	
530	0	32733	32691	32759	33202	33023	
531	0	32764	32571	32736	32367	32799	
532	0	32725	32871	32728	31877	32775	
533	0	32763	32835	32749	31875	33046	
534	0	32724	32665	32789	31715	32955	
535	0	32796	32775	32671	31895	33091	
536	0	32813	32623	32737	32319	33073	
537	0	32875	32679	32625	32333	32625	
538	0	32861	32669	32702	32871	32921	
539	0	32801	32571	32693	33695	32767	
540	0	32805	32647	32743	34301	32895	
541	0	32755	32681	32659	34400	33003	
542	0	32711	32566	32797	34873	32769	
543	0	32799	32646	32807	34449	32759	
544	0	32766	32603	32677	33362	32987	
545	0	32775	32415	32746	32251	33303	
546	0	32817	32423	32624	31815	32806	
547	0	32741	32348	32724	31867	32698	
548	0	32746	32503	32551	32101	32811	
549	0	32760	32575	32679	32350	32913	
550	0	32741	32565	32571	32246	32847	
551	0	32857	32704	32749	32171	33083	
552	0	32775	32691	32743	32156	32751	
553	0	32764	32861	32775	32551	32683	
554	0	32756	32711	32765	32255	32775	
555	0	32800	32603	32722	32327	32957	
556	0	32802	32774	32763	32792	32793	
557	0	32722	32674	32799	32863	32683	
558	0	32757	32495	32831	32804	32753	
559	0	32786	32659	32640	33029	32737	
560	0	32775	32722	32725	32890	32628	
561	0	32802	32682	32707	32558	33095	
562	0	32758	32543	32631	32919	33028	
563	0	32726	32775	32718	33240	33074	
564	0	32775	32730	32636	32748	32579	
565	0	32808	32827	32709	32301	32775	
566	0	32896	32825	32627	32555	33345	
567	0	32789	32639	32735	32975	32461	
568	0	32775	32835	32759	32927	32711	
569	0	32805	32687	32795	32879	33011	
570	0	32737	32833	32788	32611	33037	
571	0	32760	32763	32722	32247	32876	
572	0	32720	32583	32755	32391	32507	
573	0	32764	32591	32741	33203	32637	
574	0	32758	32406	32738	33503	32909	
575	0	32738	32575	32709	33309	32875	
576	0	32790	32637	32775	32868	32749	
577	0	32709	32541	32813	32451	32793	
578	0	32688	32559	32723	32289	33087	
579	0	32722	32651	32771	32406	33271	
580	0	32775	32505	32791	32475	32679	
581	0	32758	32576	32740	32359	32483	
582	0	32766	32647	32625	32361	32691	
583	0	32793	32455	32624	32539	33137	
584	0	32760	32665	32803	33479	32937	
585	0	32793	32661	32793	33639	32685	
586	0	32750	32749	32739	32952	32983	
587	0	32756	32546	32763	32722	32312	
588	0	32726	32749	32687	32702	32995	
589	0	32709	32755	32607	32611	32987	
590	0	32744	32679	32707	32549	32909	
591	0	32787	32645	32653	32595	33129	
592	0	32756	32629	32757	32515	32419	
593	0	32711	32407	32839	32619	32531	
594	0	32738	32611	32647	32442	32839	
595	0	32765	32672	32743	32508	32743	
596	0	32786	32539	32703	32367	32977	
597	0	32748	32807	32747	32646	32947	
598	0	32732	32850	32751	32583	32855	
599	0	32718	32525	32583	32723	32663	
600	0	32728	32737	32665	32774	32743	
601	0	32760	32775	32617	32889	32961	
602	0	32746	32855	32763	32899	32870	
603	0	32707	32727	32601	32919	32827	
604	0	32720	32562	32679	32791	32813	
605	0	32754	32751	32699	32481	32862	
606	0	32718	32742	32747	32429	32839	
607	0	32758	32671	32775	32263	33089	
608	0	32828	32433	32789	32475	32691	
609	0	32793	32467	32739	32890	32551	
610	0	32834	32595	32767	33327	33076	
611	0	32824	32721	32738	33245	32455	
612	0	32869	32831	32607	33343	32559	
613	0	32838	32675	32638	33711	32696	
614	0	32793	32839	32627	34067	32631	
615	0	32720	32750	32741	33671	32741	
616	0	32684	32837	32745	32854	32825	
617	0	32775	32711	32755	32477	32899	
618	0	32805	32903	32759	33065	32979	
619	0	32791	32769	32591	33011	32921	
620	0	32858	32655	32685	32771	32775	
621	0	32861	32791	32647	32647	33027	
622	0	32836	32669	32763	32041	32661	
623	0	32839	32610	32809	31911	32911	
624	0	32802	32767	32579	31827	32855	
625	0	32792	32751	32789	32071	32636	
626	0	32839	32739	32766	31975	32807	
627	0	32822	32679	32602	32027	32935	
628	0	32772	32573	32687	32386	32975	
629	0	32746	32635	32646	32739	33150	
630	0	32728	32515	32758	32323	33151	
631	0	32748	32321	32823	32877	32575	
632	0	32751	32426	32701	33087	32861	
633	0	32734	32402	32687	33560	33005	
634	0	32762	32241	32551	33381	32563	
635	0	32720	32371	32738	33679	32683	
636	0	32728	32423	32746	34303	33109	
637	0	32774	32517	32763	33602	32738	
638	0	32775	32677	32711	33327	32719	
639	0	32801	32703	32677	33975	33045	
640	0	32736	32775	32787	33607	33024	
641	0	32729	32887	32747	32635	33117	
642	0	32748	32731	32695	32227	32507	
643	0	32803	32711	32755	32227	32906	
644	0	32753	32821	32773	32575	32695	
645	0	32832	32883	32640	32629	32914	
646	0	32875	32813	32543	32463	32739	
647	0	32793	32839	32610	32045	32935	
648	0	32851	32879	32733	31965	33055	
649	0	32832	32614	32748	32257	33027	
650	0	32750	32685	32745	32179	33087	
651	0	32775	32727	32815	31927	32634	
652	0	32768	32610	32751	31739	32634	
653	0	32723	32591	32751	32069	32360	
654	0	32729	32501	32666	31783	32517	
655	0	32738	32447	32605	32093	33177	
656	0	32728	32231	32579	32719	32775	
657	0	32775	32410	32611	33301	32799	
658	0	32756	32595	32583	34111	32767	
659	0	32762	32687	32683	34624	32667	
660	0	32801	32617	32703	34979	33014	
661	0	32804	32813	32733	34154	32902	
662	0	32796	32553	32775	32686	32855	
663	0	32772	32717	32791	32011	32987	
664	0	32832	32529	32623	31913	33007	
665	0	32825	32535	32675	31967	32799	
666	0	32903	32387	32755	32309	32929	
667	0	32881	32697	32726	32640	32805	
668	0	32775	32563	32717	32687	32903	
669	0	32785	32703	32755	32813	33007	
670	0	32775	32775	32827	33554	32915	
671	0	32734	32635	32795	32651	32503	
672	0	32738	32683	32792	31410	32955	
673	0	32797	32511	32799	30989	32912	
674	0	32770	32674	32815	31197	32851	
675	0	32737	32673	32704	31747	32775	
676	0	32786	32432	32729	32394	32973	
677	0	32760	32449	32621	35003	32807	
678	0	32708	32535	32697	36067	32561	
679	0	32723	32839	32583	34631	32741	
680	0	32771	32851	32697	33871	32923	
681	0	32839	32646	32579	33359	33150	
682	0	32857	32722	32707	32962	32719	
683	0	32839	32703	32583	32599	32728	
684	0	32839	32427	32765	32960	32737	
685	0	32818	32595	32743	32502	32879	
686	0	32750	32667	32735	31303	33132	
687	0	32775	32642	32711	30579	32923	
688	0	32746	32647	32688	30439	32831	
689	0	32647	32615	32793	30639	32882	
690	0	32625	32817	32655	31297	33027	
691	0	32704	32829	32735	32355	32387	
692	0	32787	32927	32623	33357	32445	
693	0	32801	32912	32753	35293	32618	
694	0	32775	32711	32611	35789	32947	
695	0	32796	32851	32704	37422	32883	
696	0	32911	32787	32593	38481	32765	
697	0	32905	32849	32743	36503	32941	
698	0	32781	32937	32529	33252	32975	
699	0	32808	32921	32669	30601	32728	
700	0	32825	32725	32574	29915	32915	
701	0	32750	32666	32569	30678	32987	
702	0	32813	32642	32641	31047	32989	
703	0	32813	32503	32750	31501	32851	
704	0	32762	32481	32749	31409	33171	
705	0	32775	32446	32737	32163	32963	
706	0	32772	32223	32667	32619	32635	
707	0	32741	32395	32711	32460	32791	
708	0	32739	32635	32693	32445	32711	
709	0	32704	32695	32749	32647	33025	
710	0	32775	32711	32813	33399	32937	
711	0	32839	32723	32771	33415	32999	
712	0	32756	32660	32726	32893	32469	
713	0	32816	32739	32775	32731	32570	
714	0	32743	32571	32594	32491	32583	
715	0	32722	32418	32573	32301	33051	
716	0	32736	32319	32558	32067	32942	
717	0	32750	32390	32845	31958	32728	
718	0	32796	32521	32751	32071	32775	
719	0	32751	32427	32775	32647	32640	
720	0	32760	32293	32639	32725	32685	
721	0	32800	32471	32775	32541	33046	
722	0	32775	32440	32659	32739	32961	
723	0	32736	32434	32825	32549	32199	
724	0	32653	32627	32659	32683	32822	
725	0	32681	32627	32701	32383	33093	
726	0	32693	32741	32643	32386	32935	
727	0	32797	32791	32741	31998	32839	
728	0	32832	32861	32669	31865	32941	
729	0	32846	33029	32758	32719	32983	
730	0	32850	32961	32765	33071	33229	
731	0	32809	32813	32767	33767	32967	
732	0	32865	32955	32771	34015	32498	
733	0	32818	32855	32791	34081	32642	
734	0	32775	32633	32795	35296	32775	
735	0	32767	32571	32647	34731	32962	
736	0	32800	32455	32791	33127	32871	
737	0	32747	32663	32662	32913	32642	
738	0	32720	32551	32711	32749	32836	
739	0	32785	32495	32557	33513	32953	
740	0	32710	32799	32746	32637	32727	
741	0	32725	32765	32771	32639	32889	
742	0	32752	32627	32751	32233	33031	
743	0	32732	32601	32792	32141	33001	
744	0	32748	32495	32627	32831	32775	
745	0	32759	32583	32716	32859	32720	
746	0	32772	32583	32671	32903	32983	
747	0	32792	32341	32747	32245	32859	
748	0	32845	32403	32731	32247	32839	
749	0	32876	32507	32775	32567	32943	
750	0	32870	32645	32621	32631	32873	
751	0	32821	32774	32623	32361	33083	
752	0	32759	32571	32745	31965	32679	
753	0	32706	32631	32731	32531	32853	
754	0	32685	32775	32655	32429	32495	
755	0	32722	32751	32715	33547	32921	
756	0	32820	32775	32731	33407	32863	
757	0	32845	32691	32646	31913	32916	
758	0	32770	32483	32559	31514	32789	
759	0	32800	32557	32675	31691	32775	
760	0	32834	32519	32751	31834	32967	
761	0	32756	32499	32707	32888	32815	
762	0	32775	32466	32690	33314	32759	
763	0	32775	32387	32787	33495	32743	
764	0	32807	32495	32647	33979	32815	
765	0	32796	32423	32689	33811	32650	
766	0	32827	32674	32607	33003	32829	
767	0	32775	32717	32669	32399	32711	
768	0	32722	32686	32615	32179	32472	
769	0	32711	32519	32687	32671	32727	
770	0	32629	32370	32591	32803	32817	
771	0	32754	32493	32699	32975	32879	
772	0	32851	32547	32671	32639	33030	
773	0	32843	32403	32775	32381	32951	
774	0	32845	32621	32791	32445	32752	
775	0	32837	32662	32631	32847	32963	
776	0	32839	32591	32735	32477	32964	
777	0	32855	32743	32593	31939	33157	
778	0	32775	32855	32762	31751	33047	
779	0	32853	32869	32734	32215	32592	
780	0	32809	32745	32689	32863	32775	
781	0	32797	32682	32735	34607	32899	
782	0	32815	32719	32691	35527	32822	
783	0	32717	32681	32559	35367	32903	
784	0	32760	32471	32759	33675	32879	
785	0	32839	32614	32541	32497	32655	
786	0	32775	32662	32699	31781	32761	
787	0	32710	32525	32658	31743	32880	
788	0	32681	32793	32749	32165	32765	
789	0	32769	32775	32775	31991	32663	
790	0	32843	32743	32768	31843	32711	
791	0	32738	32822	32817	32543	32898	
792	0	32728	32719	32813	33669	33054	
793	0	32734	32827	32765	34801	32835	
794	0	32775	32630	32590	34350	32635	
795	0	32774	32619	32715	33000	32850	
796	0	32815	32442	32809	32199	32741	
797	0	32820	32372	32751	31321	32989	
798	0	32768	32547	32699	31523	32936	
799	0	32876	32555	32768	32063	32897	
800	0	32752	32539	32704	32509	32789	
801	0	32749	32669	32560	33071	32962	
802	0	32747	32535	32551	33351	32873	
803	0	32731	32669	32743	33215	32739	
804	0	32724	32647	32775	33127	32801	
805	0	32804	32815	32717	33131	32839	
806	0	32866	32647	32720	32487	32885	
807	0	32871	32791	32665	31968	32571	
808	0	32681	32851	32603	32167	33164	
809	0	32740	33003	32837	32254	33015	
810	0	32735	32993	32659	32513	32886	
811	0	32744	32951	32771	32455	32773	
812	0	32751	32821	32751	32230	32914	
813	0	32805	32963	32665	32297	33037	
814	0	32759	32868	32746	33185	32877	
815	0	32761	32519	32640	32755	32721	
816	0	32787	32549	32806	32031	32677	
817	0	32792	32573	32775	31737	32711	
818	0	32797	32429	32639	31882	32891	
819	0	32760	32679	32687	32455	33119	
820	0	32818	32695	32635	33314	33155	
821	0	32826	32751	32775	33321	32815	
822	0	32736	32875	32792	33150	32595	
823	0	32856	32731	32668	35663	32379	
824	0	32826	32647	32704	36281	32679	
825	0	32738	32850	32646	34533	32989	
826	0	32734	32735	32701	32223	33030	
827	0	32763	32663	32683	31239	32888	
828	0	32823	32934	32723	31302	32903	
829	0	32775	32844	32813	31835	32937	
830	0	32757	32631	32775	32429	32791	
831	0	32718	32812	32743	32287	32391	
832	0	32718	32739	32775	33111	32973	
833	0	32797	32603	32809	34087	33045	
834	0	32746	32610	32547	33407	32903	
835	0	32725	32512	32675	33049	32789	
836	0	32839	32371	32614	33387	32903	
837	0	32824	32563	32697	33830	32487	
838	0	32738	32503	32642	33967	32631	
839	0	32838	32473	32719	33279	32743	
840	0	32814	32723	32743	32701	32839	
841	0	32762	32647	32723	32569	32944	
842	0	32768	32642	32787	32077	32992	
843	0	32740	32869	32642	30907	32766	
844	0	32717	32959	32739	30190	32696	
845	0	32718	32861	32707	31495	32747	
846	0	32669	32890	32832	32391	32851	
847	0	32713	32747	32681	33215	32915	
848	0	32797	32703	32749	33407	32791	
849	0	32789	32527	32639	33321	32735	
850	0	32711	32231	32751	33577	32957	
851	0	32747	32135	32621	34031	32973	
852	0	32770	32055	32698	33743	32922	
853	0	32920	32367	32601	32611	32747	
854	0	32775	32383	32737	31431	32741	
855	0	32741	32263	32650	30359	32809	
856	0	32800	32438	32704	30594	32803	
857	0	32838	32446	32755	31703	32981	
858	0	32754	32540	32743	34539	32775	
859	0	32760	32599	32751	35968	32813	
860	0	32741	32455	32775	34493	32552	
861	0	32775	32515	32574	33263	32983	
862	0	32775	32703	32591	32592	32775	
863	0	32792	32757	32637	33611	32825	
864	0	32808	32743	32719	33839	32747	
865	0	32823	32759	32733	33575	32711	
866	0	32865	32823	32717	32626	33071	
867	0	32817	32631	32727	32307	32539	
868	0	32815	32583	32683	32443	32915	
869	0	32769	32639	32720	32276	32797	
870	0	32610	32647	32767	31170	33043	
871	0	32642	32555	32641	30578	32775	
872	0	32595	32671	32537	30727	32967	
873	0	32614	32685	32671	30616	32957	
874	0	32772	32500	32635	31693	32839	
875	0	32992	32583	32727	33343	32702	
876	0	32899	32704	32797	35043	32818	
877	0	32892	32743	32775	35751	32887	
878	0	32813	32931	32735	35355	32569	
879	0	32904	33158	32749	33410	32775	
880	0	32826	33253	32767	30983	32873	
881	0	32848	33175	32759	31259	32903	
882	0	32775	33217	32743	33525	32981	
883	0	32724	33244	32589	35335	32543	
884	0	32839	33145	32774	35551	32407	
885	0	32809	33063	32751	34306	32590	
886	0	32856	32943	32825	32455	32771	
887	0	32861	32489	32768	30912	32871	
888	0	32775	32131	32619	29981	32965	
889	0	32788	32205	32683	30681	32964	
890	0	32775	32082	32583	31594	33035	
891	0	32742	32087	32729	31328	33005	
892	0	32805	31975	32698	31115	32987	
893	0	32801	31842	32703	32221	32827	
894	0	32730	32035	32763	32717	32711	
895	0	32727	32186	32658	33287	32813	
896	0	32674	32289	32775	33513	32775	
897	0	32684	32621	32663	33089	32731	
898	0	32647	32749	32655	33223	32957	
899	0	32661	32797	32561	34061	33000	
900	0	32720	32935	32711	35405	32953	
901	0	32791	32911	32553	35287	32742	
902	0	32752	33231	32763	34023	32737	
903	0	32763	33023	32698	32323	32907	
904	0	32804	32883	32818	32533	32628	
905	0	32736	32831	32730	31591	32883	
906	0	32706	32471	32787	32143	32451	
907	0	32722	32427	32775	31855	32795	
908	0	32758	32615	32751	31775	33090	
909	0	32762	32559	32772	32433	32984	
910	0	32707	32627	32647	32610	32873	
911	0	32713	32911	32702	32510	32837	
912	0	32720	32879	32651	33001	32822	
913	0	32671	32763	32765	33095	32739	
914	0	32740	32903	32775	33557	32981	
915	0	32874	32835	32615	36039	32915	
916	0	32827	32941	32755	34943	32903	
917	0	32904	32903	32711	32244	32839	
918	0	32974	33187	32743	31487	32608	
919	0	33012	33305	32793	29501	32761	
920	0	32822	33319	32762	29104	33003	
921	0	32804	33413	32775	29821	32924	
922	0	32775	33127	32745	31099	32720	
923	0	32735	32849	32775	32701	32607	
924	0	32738	32237	32619	33359	32894	
925	0	32775	31703	32745	33815	32982	
926	0	32880	31486	32569	34217	32675	
927	0	32853	31261	32725	34853	32607	
928	0	32857	31415	32581	36690	32993	
929	0	32904	31619	32710	36166	32965	
930	0	32915	31807	32727	34957	32913	
931	0	32922	32379	32688	32819	32915	
932	0	32981	32705	32719	30884	32854	
933	0	32996	33211	32671	29191	33011	
934	0	32930	33287	32660	29693	32703	
935	0	33012	33451	32687	31163	32883	
936	0	32991	33833	32678	34215	32946	
937	0	32876	33859	32526	37267	32827	
938	0	32899	33837	32638	36231	33019	
939	0	32921	33837	32523	33068	32971	
940	0	33038	33351	32705	30131	32919	
941	0	32994	32635	32640	31879	32461	
942	0	32905	32248	32736	33503	32813	
943	0	32932	31773	32758	32327	33111	
944	0	32948	31363	32630	32239	33010	
945	0	32836	31310	32699	32249	32619	
946	0	32836	31347	32635	31925	32638	
947	0	32649	31543	32733	31217	32775	
948	0	32553	32047	32663	31085	32839	
949	0	32532	32438	32743	31839	33041	
950	0	32386	32694	32710	32574	33115	
951	0	32263	32999	32715	33963	32995	
952	0	32178	33350	32861	34225	33057	
953	0	32180	33283	32879	34680	32955	
954	0	32185	33150	32921	34023	32839	
955	0	32283	32661	32921	32535	32819	
956	0	32379	32047	32813	31649	32775	
957	0	32467	31886	32855	31699	32699	
958	0	32533	31943	32721	31670	32727	
959	0	32672	31943	32851	31890	32757	
960	0	32560	32293	32793	31815	32719	
961	0	32658	32751	32851	32198	32970	
962	0	32587	32934	32813	32259	32999	
963	0	32626	33250	32855	31871	32834	
964	0	32698	33536	32807	32370	32903	
965	0	32765	33283	32595	32430	32911	
966	0	32884	33154	32729	32315	32671	
967	0	32916	33067	32730	32711	32639	
968	0	32860	32995	32719	34141	33076	
969	0	32956	32991	32757	35411	32839	
970	0	32876	32931	32496	34557	32615	
971	0	32875	32903	32683	32658	32847	
972	0	32930	32765	32491	32292	33039	
973	0	32888	32551	32615	31789	32997	
974	0	32886	32899	32545	32625	32626	
975	0	32958	33317	32683	32501	32665	
976	0	32807	33514	32689	31591	32653	
977	0	32813	33399	32699	32761	32978	
978	0	32881	32933	32711	34023	33010	
979	0	32870	32455	32635	35971	32902	
980	0	32833	31809	32705	35313	32749	
981	0	32824	31387	32596	34063	32589	
982	0	32950	31351	32579	33081	33075	
983	0	32967	31779	32767	32039	33065	
984	0	32950	32203	32734	31063	32685	
985	0	32861	32295	32670	31107	32935	
986	0	32860	32700	32735	32035	32699	
987	0	32820	32819	32607	33092	32650	
988	0	32699	33239	32741	33983	32429	
989	0	32747	33415	32679	33339	32808	
990	0	32728	33287	32801	31487	33037	
991	0	32802	32991	32775	29722	33069	
992	0	32800	32413	32757	29229	32887	
993	0	32770	31826	32751	29629	32747	
994	0	32744	31474	32617	30829	32925	
995	0	32728	31730	32762	32045	32967	
996	0	32775	32197	32717	34171	32917	
997	0	32772	32667	32799	36039	32532	
998	0	32838	33305	32795	36839	32837	
999	0	32861	33415	32795	35651	32903	
1000	0	32774	33287	32775	34149	32791	
1001	0	32770	33229	32746	34247	32789	
1002	0	32758	33043	32731	33670	33095	
1003	0	32813	33207	32760	32763	33003	
1004	0	32775	33219	32652	30945	32713	
1005	0	32738	33511	32723	30311	32882	
1006	0	32807	33249	32629	30677	32899	
1007	0	32809	32953	32775	29991	32647	
1008	0	32772	32499	32723	30209	32886	
1009	0	32717	32038	32741	32192	32935	
1010	0	32693	31943	32774	35169	33007	
1011	0	32747	31920	32775	37029	32975	
1012	0	32722	31893	32793	37110	32451	
1013	0	32772	32039	32775	37298	32818	
1014	0	32709	32601	32551	36723	32951	
1015	0	32876	32961	32687	33491	32825	
1016	0	32872	32883	32647	31359	32955	
1017	0	32805	32947	32770	29935	32921	
1018	0	32836	32465	32609	28355	32717	
1019	0	32825	32155	32717	28767	32640	
1020	0	32863	32168	32683	31250	32775	
1021	0	32842	31890	32767	32731	33013	
1022	0	32732	31979	32642	33363	33135	
1023	0	32668	31997	32726	34521	32869	
1024	0	32744	31751	32799	35663	32880	
1025	0	32869	31959	32775	35238	32793	
1026	0	32838	32199	32835	33665	32941	
1027	0	32938	32430	32653	28279	32521	
1028	0	32884	33277	32713	29153	32663	
1029	0	32820	33741	32607	31509	33009	
1030	0	32805	33663	32621	32293	32995	
1031	0	32775	33554	32529	34077	32737	
1032	0	32775	32987	32523	33586	32787	
1033	0	32827	32341	32505	33205	32963	
1034	0	32843	32186	32727	32847	32994	
1035	0	32737	32079	32823	32451	32927	
1036	0	32643	32055	32850	32035	32939	
1037	0	32692	32423	32816	33117	32903	
1038	0	32711	32845	32775	35161	32914	
1039	0	32711	32999	32825	35335	32549	
1040	0	32730	33243	32615	33223	32493	
1041	0	32724	33063	32742	31859	32626	
1042	0	32614	33125	32675	30564	32996	
1043	0	32637	33095	32817	30375	33103	
1044	0	32757	33186	32830	32443	33059	
1045	0	32748	33559	32658	33776	32653	
1046	0	32772	33881	32801	31163	32833	
1047	0	32967	34193	32669	31399	32857	
1048	0	33032	34567	32755	32639	32767	
1049	0	32984	34322	32738	33202	32910	
1050	0	32881	33610	32659	36623	32834	
1051	0	32787	32593	32733	38599	32715	
1052	0	32785	31417	32618	38915	32688	
1053	0	32719	30617	32763	35803	32641	
1054	0	32748	30115	32746	32775	32885	
1055	0	32807	30347	32640	30424	33082	
1056	0	32805	31239	32675	28817	32475	
1057	0	32775	31799	32535	30384	32711	
1058	0	32747	32407	32663	31034	32935	
1059	0	32720	32751	32691	31661	32963	
1060	0	32755	32952	32627	31526	32863	
1061	0	32660	32999	32899	30605	32869	
1062	0	32720	33234	32927	30599	32914	
1063	0	32760	33783	32898	31607	32695	
1064	0	32731	33629	32863	32263	32722	
1065	0	32744	33681	32654	32615	32670	
1066	0	32775	33427	32448	32759	33265	
1067	0	32775	32981	32489	31812	32967	
1068	0	32760	32562	32569	30427	32570	
1069	0	32720	32433	32525	31259	32606	
1070	0	32760	32051	32603	33095	32915	
1071	0	32732	32023	32787	34119	32925	
1072	0	32704	31803	32935	33223	32583	
1073	0	32706	31953	32903	33778	33061	
1074	0	32676	32205	32957	36293	32908	
1075	0	32757	32795	32927	36691	32725	
1076	0	32770	33962	32654	35847	32541	
1077	0	32729	34611	32571	36167	32791	
1078	0	32685	34823	32499	32583	32735	
1079	0	32860	34658	32485	28575	33174	
1080	0	32889	33538	32327	26497	33141	
1081	0	32816	31923	32127	28724	33371	
1082	0	32793	30611	32353	31967	32955	
1083	0	32775	29918	32528	35747	32587	
1084	0	32775	29732	32513	39879	32743	
1085	0	32978	30078	32696	39485	32711	
1086	0	32979	30823	32738	34175	32997	
1087	0	32840	31578	32937	32317	32183	
1088	0	32780	32067	32934	30774	32518	
1089	0	32760	32709	33042	29055	32987	
1090	0	32750	33703	32998	27136	33073	
1091	0	32796	34086	32925	27431	32723	
1092	0	32801	33933	32891	30257	32935	
1093	0	32815	33626	32670	32223	32626	
1094	0	32832	33171	32341	34021	32719	
1095	0	32819	33373	32549	33613	32614	
1096	0	32713	33258	32757	34303	32759	
1097	0	32787	32845	32697	36845	32706	
1098	0	32813	32353	32639	35607	33049	
1099	0	32827	31906	32807	35376	32759	
1100	0	32857	32153	32845	34455	32807	
1101	0	32749	32445	32839	35039	32927	
1102	0	32747	32678	32873	35911	32726	
1103	0	32852	32665	32947	35331	33018	
1104	0	32869	32257	32850	33007	33043	
1105	0	32982	32147	33059	31046	32717	
1106	0	32928	32231	33128	30041	32973	
1107	0	32872	32215	33127	30435	33130	
1108	0	32711	32487	33051	29423	32676	
1109	0	32722	32683	32863	29473	32851	
1110	0	32720	32710	32775	29773	32936	
1111	0	32748	33325	32215	30083	32930	
1112	0	32775	33620	31829	30468	32961	
1113	0	32812	33787	31901	29962	32687	
1114	0	32656	33467	32229	31170	32685	
1115	0	32610	33001	32347	33775	32898	
1116	0	32576	32727	32694	34565	32891	
1117	0	32583	32485	32855	34283	32429	
1118	0	32647	32551	32942	34458	33024	
1119	0	32628	32733	32989	34222	33063	
1120	0	32613	33311	32917	34533	32897	
1121	0	32688	33741	32909	35795	32838	
1122	0	32775	33983	32860	38519	32891	
1123	0	32915	34073	32755	35919	32469	
1124	0	32843	33779	32483	32195	32663	
1125	0	32860	33307	32359	33273	32973	
1126	0	32832	32697	32280	30501	32891	
1127	0	32717	32135	32478	29016	32967	
1128	0	32679	31384	32514	30364	33039	
1129	0	32744	30981	32751	34364	32611	
1130	0	32812	31034	32659	36783	32807	
1131	0	32886	31442	32775	35709	32850	
1132	0	32913	32000	32711	30719	32903	
1133	0	32893	32797	32982	31105	33094	
1134	0	32735	33287	32957	34283	32874	
1135	0	32722	33463	33039	35083	32566	
1136	0	32832	33525	33041	31792	32656	
1137	0	32834	32953	33081	28772	33538	
1138	0	32734	32655	33253	30829	32683	
1139	0	32896	32438	33139	33847	33135	
1140	0	32974	31789	33437	33442	33403	
1141	0	32869	31269	33399	32370	32772	
1142	0	32879	30927	33303	30771	32704	
1143	0	32774	30841	32813	27153	33037	
1144	0	32694	30983	32954	26777	32775	
1145	0	32686	31367	32945	29840	32755	
1146	0	32739	32007	32374	35521	32671	
1147	0	32730	32453	31773	34375	32806	
1148	0	32891	33091	31457	34653	32587	
1149	0	32824	33231	31357	35155	32275	
1150	0	32694	33247	31678	35257	32498	
1151	0	32568	32887	32323	32579	33006	
1152	0	32556	32661	32699	31557	33134	
1153	0	32513	32850	32807	31289	33203	
1154	0	32580	33087	32594	33557	33101	
1155	0	32705	33711	31919	38187	31908	
1156	0	32910	33982	31267	38493	32735	
1157	0	33008	34368	31463	37640	32943	
1158	0	32918	34448	31943	36439	32831	
1159	0	32738	33855	32505	31157	32967	
1160	0	32636	33347	33003	28331	32899	
1161	0	32668	32957	33115	31159	32735	
1162	0	32617	32907	33227	34651	32851	
1163	0	32750	32475	33090	34681	33007	
1164	0	32892	31911	33068	33389	33079	
1165	0	32792	31451	33104	29182	32987	
1166	0	32800	31061	32980	25318	32566	
1167	0	32754	30757	33206	25778	32787	
1168	0	32775	31616	33263	27002	32946	
1169	0	32768	32943	33215	28455	32981	
1170	0	32713	34194	33100	31743	33053	
1171	0	32704	34097	32763	34695	32711	
1172	0	32576	33756	32647	38253	32895	
1173	0	32646	33207	33043	38116	32839	
1174	0	32728	32975	33171	38357	32709	
1175	0	32833	32997	33177	38199	32662	
1176	0	32834	32936	32839	36691	32835	
1177	0	32813	32758	32337	35605	32933	
1178	0	32824	32743	32448	28769	32827	
1179	0	32847	32567	32489	26063	32951	
1180	0	32853	32439	32719	29303	32895	
1181	0	32888	31792	32579	32166	32860	
1182	0	32843	31195	32827	37150	32987	
1183	0	32918	30595	32765	41470	32861	
1184	0	32885	30235	32896	40527	33193	
1185	0	32868	30791	32890	37206	32551	
1186	0	32868	31532	32758	31010	32391	
1187	0	32794	32623	32773	28943	32547	
1188	0	32796	33607	32839	29096	32805	
1189	0	32754	34395	32819	27949	33124	
1190	0	32722	34494	32775	28357	33693	
1191	0	32690	34499	32583	28231	32931	
1192	0	32686	34715	32470	29305	32619	
1193	0	32733	34823	32549	30273	32694	
1194	0	32656	34054	32666	29695	32839	
1195	0	32678	33301	32743	30087	32991	
1196	0	32368	32263	32647	33095	32902	
1197	0	32416	31627	32473	37071	32775	
1198	0	32444	31512	32637	37243	32462	
1199	0	32639	32283	32539	34883	32803	
1200	0	32756	33725	32519	31858	32903	
1201	0	32717	34842	32735	30196	32903	
1202	0	32818	34097	32893	34039	32839	
1203	0	32833	32339	33063	37906	32775	
1204	0	32852	30117	33071	40249	32635	
1205	0	32809	28619	32837	38742	32742	
1206	0	32775	28071	32399	36146	32737	
1207	0	32905	28742	32006	32981	32821	
1208	0	33062	29968	32055	32302	32933	
1209	0	32966	31175	32405	31206	32757	
1210	0	32912	32611	32577	29575	32667	
1211	0	32865	33698	32681	27887	32883	
1212	0	32562	34430	32655	28942	33113	
1213	0	32512	34823	32711	26627	32819	
1214	0	32644	34978	32833	25901	32816	
1215	0	32769	35126	32972	30167	33025	
1216	0	32910	35111	33017	32089	32775	
1217	0	32824	34905	32701	33179	32695	
1218	0	32802	34111	32434	34845	32539	
1219	0	32773	33371	32287	34867	32760	
1220	0	32677	32557	32102	35139	33033	
1221	0	32611	32063	32337	36320	32834	
1222	0	32741	32143	32743	34115	32454	
1223	0	32952	32181	32883	33095	32995	
1224	0	33057	32247	33095	33058	32679	
1225	0	33082	32069	33018	31931	32550	
1226	0	32914	31581	32939	32039	33207	
1227	0	32796	30697	33015	34362	33063	
1228	0	32802	30145	33011	35417	33087	
1229	0	32749	30114	32989	35037	33048	
1230	0	32800	30754	32974	34835	32831	
1231	0	32870	31849	32839	32479	32916	
1232	0	32906	32467	32895	30762	32627	
1233	0	32930	33198	32753	33607	32639	
1234	0	32797	33830	32291	34519	32355	
1235	0	32840	33932	32285	30439	32594	
1236	0	32772	34044	32498	29191	33059	
1237	0	32695	34194	32598	29546	32833	
1238	0	32750	33895	32630	29793	33207	
1239	0	32701	33442	32708	32195	32917	
1240	0	32656	33127	32827	35610	33091	
1241	0	32707	32987	32775	38887	32512	
1242	0	32751	32851	32857	37325	32557	
1243	0	32836	32758	32755	33242	32696	
1244	0	32877	32822	32803	27945	32902	
1245	0	32837	32698	32722	29952	32607	
1246	0	32699	32624	32623	36650	33046	
1247	0	32876	32711	32663	36501	32607	
1248	0	32688	32923	32853	33370	32717	
1249	0	32733	33165	32845	31751	32903	
1250	0	32853	33213	32711	29865	33205	
1251	0	32879	32977	32719	29683	32811	
1252	0	32914	32515	32741	30711	32897	
1253	0	32908	32245	32721	31994	32366	
1254	0	32815	31783	32566	32725	33091	
1255	0	32720	31664	32656	31397	33121	
1256	0	32614	31751	32717	28811	33458	
1257	0	32654	31965	32886	27126	32391	
1258	0	32646	32165	32909	26777	33091	
1259	0	32655	32205	32813	29371	32663	
1260	0	32617	32514	32863	33631	32829	
1261	0	32667	33151	32971	39943	32738	
1262	0	32801	33324	32775	44023	32453	
1263	0	32807	33183	32569	43077	32487	
1264	0	32889	33223	32413	38530	32511	
1265	0	32943	33223	32435	34461	32717	
1266	0	32870	33175	32629	33615	33682	
1267	0	32899	33101	32531	29974	32967	
1268	0	32886	33003	32448	28481	32918	
1269	0	32829	32827	32478	30655	32306	
1270	0	32792	32957	32839	33470	32596	
1271	0	32841	32907	33083	32699	33193	
1272	0	32865	32691	33031	31593	33067	
1273	0	32899	32599	32735	31255	32727	
1274	0	32772	32549	32440	30557	32386	
1275	0	32745	32791	32449	29888	32575	
1276	0	32670	32980	32253	27372	32863	
1277	0	32637	33134	32407	26617	33211	
1278	0	32695	32832	32583	29971	33074	
1279	0	32672	32496	32797	36322	32598	
1280	0	32632	31784	32833	40070	32929	
1281	0	32722	30957	32889	40519	32944	
1282	0	32832	30547	32667	39771	32535	
1283	0	32628	30695	32677	39403	32923	
1284	0	32615	31797	32775	34300	33178	
1285	0	32744	33161	32923	26040	32609	
1286	0	32829	33977	32866	26977	33111	
1287	0	32731	34335	32854	28211	32827	
1288	0	32705	34407	32909	29379	33347	
1289	0	32775	34267	32818	31123	32743	
1290	0	32775	34409	32642	31491	32043	
1291	0	32833	34354	32559	30433	32394	
1292	0	32855	33730	32614	32073	33280	
1293	0	32760	32579	32739	35753	33490	
1294	0	32816	31222	32908	36210	33177	
1295	0	32817	29883	32873	35207	32982	
1296	0	32800	29471	32708	33951	32677	
1297	0	32944	29579	32731	32259	32993	
1298	0	32907	30029	32640	29581	32574	
1299	0	32864	30853	32625	28913	32531	
1300	0	32784	31315	32725	29466	32879	
1301	0	32757	31793	32755	30381	32973	
1302	0	32826	32381	32827	31125	32805	
1303	0	32809	33001	32657	32531	32893	
1304	0	32717	33528	32582	37541	32869	
1305	0	32784	33956	32671	41619	32847	
1306	0	32766	34226	32741	41259	32720	
1307	0	32770	34052	32816	38823	32967	
1308	0	32770	33848	32869	32427	33042	
1309	0	32688	33771	32739	25042	32601	
1310	0	32500	33397	32738	23107	32967	
1311	0	32570	33152	32734	27687	32319	
1312	0	32728	33159	32746	31386	32406	
1313	0	32832	33197	32567	33953	32610	
1314	0	32839	32991	32630	38203	32853	
1315	0	33083	32755	32668	39850	32923	
1316	0	33004	32557	32709	40504	32989	
1317	0	32839	32391	32727	39895	32557	
1318	0	32844	32133	32629	35787	32961	
1319	0	32940	31920	32615	30559	32770	
1320	0	32805	31801	32675	25311	33329	
1321	0	32768	32071	32839	26777	33362	
1322	0	32685	32754	32840	32066	33055	
1323	0	32676	32922	32757	36391	32775	
1324	0	32616	32821	32439	32390	32790	
1325	0	32599	32797	32351	30991	32550	
1326	0	32799	32688	32557	29367	32692	
1327	0	32728	32642	32775	29609	32665	
1328	0	32841	32635	32903	30873	32569	
1329	0	32848	32833	33014	29633	32871	
1330	0	32787	32864	33071	28482	32873	
1331	0	32766	32567	33065	30839	33020	
1332	0	32711	32702	33133	32819	32541	
1333	0	32740	32846	33303	33405	32643	
1334	0	32796	32775	33157	36119	33165	
1335	0	32811	32923	32963	39163	32514	
1336	0	32688	33021	32323	35610	32815	
1337	0	32605	32973	31951	29414	32869	
1338	0	32512	32626	32209	27298	32982	
1339	0	32612	32327	32374	28362	32679	
1340	0	32475	32185	32219	30269	33083	
1341	0	32634	32169	32027	32665	32878	
1342	0	32784	32248	32019	35995	32765	
1343	0	32920	32489	31525	40538	32767	
1344	0	33003	32379	31762	37142	32958	
1345	0	32950	32772	32512	35706	32950	
1346	0	32997	32903	32825	35156	33065	
1347	0	32948	33080	32869	38893	32573	
1348	0	32950	33003	32835	39655	32823	
1349	0	32916	33115	32964	34103	32679	
1350	0	32805	33208	33037	28354	32821	
1351	0	32738	33023	32787	27036	33109	
1352	0	32672	32738	32965	27891	32761	
1353	0	32656	32171	33091	29479	32997	
1354	0	32684	32219	32923	30333	33218	
1355	0	32624	32034	33011	30995	32918	
1356	0	32772	31879	33113	30887	32579	
1357	0	32741	31933	33122	30875	33143	
1358	0	32726	32035	32805	31961	32315	
1359	0	32664	32373	32996	30990	31916	
1360	0	32674	32801	32930	27208	32751	
1361	0	32672	33142	32957	29119	32998	
1362	0	32743	33258	32982	32070	32415	
1363	0	32701	32944	32711	33744	32735	
1364	0	32680	33136	32775	40672	32829	
1365	0	32713	33442	32757	48756	32708	
1366	0	32651	34073	32863	49453	32699	
1367	0	32692	34669	32868	41392	32406	
1368	0	32824	34602	32696	30780	32530	
1369	0	32860	34261	32762	22733	32839	
1370	0	33008	33142	32611	28595	33080	
1371	0	33104	31190	32577	33715	33088	
1372	0	32889	29672	32525	29967	32886	
1373	0	32698	29401	32697	26000	32729	
1374	0	32759	30145	32731	25955	33063	
1375	0	32802	30727	32803	29125	33145	
1376	0	32876	31655	32775	31165	33051	
1377	0	32719	32250	32589	32617	33172	
1378	0	32576	32702	32681	33253	33198	
1379	0	32559	33466	32557	33087	33287	
1380	0	32667	34004	32656	30449	33260	
1381	0	32768	34461	32605	27351	32793	
1382	0	32690	34999	32731	28131	32259	
1383	0	32809	34791	32760	30855	31821	
1384	0	32815	34239	32608	33543	31867	
1385	0	32601	33056	32693	30192	32306	
1386	0	32642	32019	32545	25337	33215	
1387	0	32709	31159	32696	26130	33414	
1388	0	32857	30317	32592	31709	33238	
1389	0	32787	29995	32726	40135	32839	
1390	0	33005	30503	32805	43760	32695	
1391	0	32986	31591	32641	46619	32933	
1392	0	32891	32451	32594	50279	32701	
1393	0	33005	33062	32591	50143	32685	
1394	0	32984	33654	32581	39751	32868	
1395	0	32896	33598	32601	28044	33117	
1396	0	32930	32848	32444	22284	32863	
1397	0	32857	32734	32711	23801	32839	
1398	0	32886	32646	32656	27558	32889	
1399	0	32690	32341	32775	30467	33010	
1400	0	32630	32281	32677	29911	33074	
1401	0	32747	32167	32827	29439	32793	
1402	0	32696	31928	32813	30822	33092	
1403	0	32797	32133	32775	32481	32995	
1404	0	32702	32551	32775	31219	33115	
1405	0	32592	32895	32651	31237	33079	
1406	0	32571	33654	32745	35118	33524	
1407	0	32642	33999	32711	37679	33035	
1408	0	32796	34119	32760	34027	32018	
1409	0	32872	33613	32748	30391	32333	
1410	0	32956	33165	32767	29800	32455	
1411	0	32864	33343	32793	32231	32833	
1412	0	32869	33363	32742	35090	33302	
1413	0	32800	33297	32844	37494	32711	
1414	0	32757	33323	32802	38215	32807	
1415	0	32728	33320	32863	37061	32731	
1416	0	32772	33195	32813	32366	32935	
1417	0	32696	32867	32800	26833	32767	
1418	0	32789	32647	32772	24909	32577	
1419	0	32739	32550	32775	24477	32563	
1420	0	32793	32247	32597	25853	32688	
1421	0	32793	32035	32602	30313	32930	
1422	0	32868	32180	32583	35169	33071	
1423	0	32864	32384	32746	41315	32889	
1424	0	32898	32601	32726	42909	32769	
1425	0	32845	32813	32839	37603	32775	
1426	0	32788	32926	32818	32478	32958	
1427	0	32835	32871	32753	28231	32895	
1428	0	32812	32695	32775	29473	32967	
1429	0	32691	32025	32797	29227	32822	
1430	0	32670	31919	32793	27977	32755	
1431	0	32704	32081	32759	27679	32903	
1432	0	32722	32225	32757	29509	32911	
1433	0	32724	32521	32813	31675	33235	
1434	0	32706	32791	32807	32747	32236	
1435	0	32676	33254	32825	37284	32711	
1436	0	32769	34470	32765	37895	32757	
1437	0	32725	35149	32750	37134	32351	
1438	0	32709	35926	32770	36070	32397	
1439	0	32752	35445	32606	35897	33351	
1440	0	32656	33985	32602	38087	32366	
1441	0	32672	31651	32734	36307	32396	
1442	0	32708	29503	32738	27802	33469	
1443	0	32724	28243	32729	21970	32978	
1444	0	32835	28530	32738	24163	33027	
1445	0	32833	30004	32773	29772	32806	
1446	0	32704	31627	32647	36359	32846	
1447	0	32793	32474	32641	46061	32812	
1448	0	32795	33099	32773	48787	32557	
1449	0	32818	33648	32775	37776	32730	
1450	0	32976	33677	32749	29570	32703	
1451	0	33001	33257	32607	27543	32644	
1452	0	33100	32775	32742	30674	32721	
1453	0	32962	32006	32623	32767	32804	
1454	0	32857	31207	32697	34646	32701	
1455	0	32829	30364	32549	33583	32690	
1456	0	32800	30258	32735	29744	32822	
1457	0	32737	30836	32617	28482	33189	
1458	0	32752	31966	32502	26073	33283	
1459	0	32609	33053	32519	25119	32880	
1460	0	32500	33410	32769	25031	32845	
1461	0	32524	33933	32695	28315	32491	
1462	0	32553	34350	32865	32861	32652	
1463	0	32663	34603	32723	37421	32947	
1464	0	32718	34400	32551	36812	32759	
1465	0	32764	33926	32699	31742	32482	
1466	0	32621	33510	32724	28858	32645	
1467	0	32621	32583	32805	35040	33038	
1468	0	32562	31959	32775	38629	32667	
1469	0	32642	32451	32797	37583	33001	
1470	0	32858	32533	32775	37063	32999	
1471	0	33074	32635	32717	35776	32839	
1472	0	33221	32479	32757	39147	32701	
1473	0	33294	32679	32672	42583	32775	
1474	0	33229	32953	32853	40573	32743	
1475	0	33095	33400	32775	36079	32945	
1476	0	33080	33702	32738	27975	32910	
1477	0	33021	33064	32644	21751	32463	
1478	0	33009	32475	32694	18178	32837	
1479	0	32989	31773	32775	21095	32535	
1480	0	33074	31608	32762	27018	32719	
1481	0	32862	31934	32717	32730	33351	
1482	0	32682	31621	32833	35763	33287	
1483	0	32788	31414	32873	33423	33012	
1484	0	32633	31874	32903	31903	32615	
1485	0	32608	32089	32831	32301	32478	
1486	0	32490	32447	32869	33799	32907	
1487	0	32597	32847	32982	34293	32855	
1488	0	32660	33169	33072	33599	33173	
1489	0	32695	33494	33159	33190	32844	
1490	0	32722	33412	33154	33311	32717	
1491	0	32711	33366	32667	35514	32903	
1492	0	32610	33304	32118	38521	32771	
1493	0	32600	33187	31805	41718	32477	
1494	0	32736	33526	31719	38561	32710	
1495	0	32797	33458	31504	31376	32491	
1496	0	32775	33543	31555	28536	32737	
1497	0	32724	33799	32370	29747	33561	
1498	0	32658	33593	33014	31231	33376	
1499	0	32646	33401	33271	32421	32743	
1500	0	32627	32950	33485	31813	32343	
1501	0	32664	32371	33443	30607	32857	
1502	0	32711	31860	33359	32397	32895	
1503	0	32728	31993	33394	33603	32878	
1504	0	32784	32314	33334	34906	32924	
1505	0	32976	32876	33251	35418	32629	
1506	0	33109	33125	32939	36247	32531	
1507	0	32838	33095	32481	34731	32829	
1508	0	32830	33395	32045	31668	32856	
1509	0	32914	33668	31379	26178	32964	
1510	0	32773	33669	31011	26808	32711	
1511	0	32679	33798	31919	30399	32710	
1512	0	32520	33415	32557	32297	32825	
1513	0	32641	32773	32900	31459	32775	
1514	0	32824	33459	32864	30727	32737	
1515	0	32980	34905	32967	31298	33042	
1516	0	33030	35926	33046	36720	32861	
1517	0	33132	35536	33247	44383	32832	
1518	0	33164	33176	33384	42823	32731	
1519	0	33344	29747	33383	37194	32733	
1520	0	33511	26555	33207	34823	32544	
1521	0	33635	24608	32246	32489	32769	
1522	0	33479	25431	31686	28615	32911	
1523	0	33008	28085	31829	30975	33250	
1524	0	32792	30285	32251	31750	32911	
1525	0	32758	31527	32671	30417	32647	
1526	0	32844	32155	32829	28504	32583	
1527	0	32813	32315	32813	26669	32775	
1528	0	32765	32429	32825	24395	32085	
1529	0	32733	33129	32853	26048	32856	
1530	0	32666	33765	32875	25369	33015	
1531	0	32613	34498	32952	30723	33443	
1532	0	32448	34230	32916	34792	33197	
1533	0	32306	33186	33017	42103	33012	
1534	0	32312	32135	32995	42631	32675	
1535	0	32424	31931	32915	36571	32816	
1536	0	32396	32489	33041	32793	32981	
1537	0	32382	33223	32979	31319	32881	
1538	0	32180	33654	32998	32912	32537	
1539	0	32168	33415	32807	32111	32829	
1540	0	32332	33379	32891	27183	32679	
1541	0	32297	33157	32873	28276	32839	
1542	0	32388	32899	32868	32448	32807	
1543	0	32397	33068	32935	35145	33055	
1544	0	32263	33311	33005	36098	32819	
1545	0	32289	33287	32951	36638	32887	
1546	0	32320	33283	32863	34763	32795	
1547	0	32477	33595	32759	31981	32959	
1548	0	32440	33605	32771	31423	33076	
1549	0	32518	33467	32747	31977	33207	
1550	0	32738	33250	32699	32713	32672	
1551	0	32839	32957	32675	32263	32868	
1552	0	32947	33013	32498	30746	32762	
1553	0	32955	33442	32483	33671	32642	
1554	0	32937	33424	32464	36727	32846	
1555	0	33037	33358	32483	38078	33003	
1556	0	33035	33321	32574	36575	32763	
1557	0	33068	33314	32606	34883	32999	
1558	0	33077	33415	32671	35957	32803	
1559	0	33087	33389	32647	35105	32967	
1560	0	33142	33304	32608	30794	32885	
1561	0	33182	33483	32587	26826	33333	
1562	0	33153	33165	32609	27783	33132	
1563	0	33102	32621	32597	30035	33074	
1564	0	32848	32297	32690	31059	32873	
1565	0	32786	32456	32618	36931	31785	
1566	0	32720	32773	32573	38981	31483	
1567	0	32725	32871	32603	38253	31942	
1568	0	32886	33126	32655	40672	32437	
1569	0	32812	33249	32680	37200	32915	
1570	0	32967	33086	32796	26166	32925	
1571	0	33322	32805	32775	21337	33133	
1572	0	33222	32787	32816	22407	32859	
1573	0	32880	32775	32800	27561	33232	
1574	0	32824	32473	32902	32749	33011	
1575	0	32824	32435	32833	33363	32935	
1576	0	32668	32667	32803	32039	33087	
1577	0	32691	33131	32685	31367	32835	
1578	0	32750	33394	32775	32639	32737	
1579	0	32678	33243	32751	31687	32871	
1580	0	32760	33391	32565	30329	33081	
1581	0	32784	33924	32459	31239	32997	
1582	0	32875	34877	32527	33056	32954	
1583	0	32866	35674	32544	36683	32834	
1584	0	32706	35309	32423	38811	33007	
1585	0	32636	32973	32365	40850	32093	
1586	0	32827	30209	32612	38703	32416	
1587	0	32936	27334	32796	32101	32775	
1588	0	33053	24707	32902	25462	32706	
1589	0	33092	24385	32877	23712	32891	
1590	0	32956	26200	32698	31316	32885	
1591	0	32850	27999	32771	39133	32822	
1592	0	32772	29547	32871	39271	33135	
1593	0	32744	31062	32877	36543	32855	
1594	0	32542	32728	32871	35015	32475	
1595	0	32680	34471	32797	33019	32992	
1596	0	32630	35696	32775	27192	32717	
1597	0	32470	35634	32667	26890	32763	
1598	0	32440	34658	32647	32285	32443	
1599	0	32515	33125	32765	33700	33039	
1600	0	32649	32112	32675	31011	32775	
1601	0	32717	31903	32716	30663	33011	
1602	0	32623	32321	33027	35479	32569	
1603	0	32643	33806	33153	36607	32773	
1604	0	32723	35174	33154	33566	32723	
1605	0	32753	35590	32787	29793	33091	
1606	0	32676	35421	32169	28381	32919	
1607	0	32674	34567	31672	30162	32985	
1608	0	32668	33995	32221	32135	32871	
1609	0	32698	34524	32727	32839	32429	
1610	0	32849	35079	32948	33415	32480	
1611	0	32944	34566	32925	32473	33287	
1612	0	32862	32982	32928	32525	32843	
1613	0	33045	30459	32979	32623	33464	
1614	0	33065	28388	33052	30982	33192	
1615	0	33190	28285	32765	32557	32295	
1616	0	33095	29357	32402	29443	32404	
1617	0	33001	30505	32432	29882	32624	
1618	0	32872	31827	32585	34460	33061	
1619	0	32630	32587	32077	35810	33016	
1620	0	32618	33253	31463	35595	32937	
1621	0	32528	33730	31751	38547	32925	
1622	0	32536	34133	32485	38058	32856	
1623	0	32656	34717	32898	37188	33383	
1624	0	32786	35026	32979	36701	32863	
1625	0	32722	35165	32887	38911	32410	
1626	0	32846	34985	32804	40455	32464	
1627	0	32805	34386	32479	36929	32420	
1628	0	32745	33278	32539	26782	32711	
1629	0	32813	32339	32839	24763	32800	
1630	0	32792	31815	32887	29805	32710	
1631	0	32765	31831	32882	33775	33097	
1632	0	32789	32111	32999	33765	33607	
1633	0	32644	32409	32963	30823	33357	
1634	0	32658	32927	32970	32214	33371	
1635	0	32700	33215	32967	32731	32967	
1636	0	32788	33095	32941	29532	32569	
1637	0	32800	33207	32978	26752	32726	
1638	0	32775	33081	32891	27497	32677	
1639	0	32792	33159	32798	31330	32976	
1640	0	32888	32879	32807	31308	32978	
1641	0	32967	33026	32839	33077	32635	
1642	0	32802	33737	32799	30443	32615	
1643	0	32772	34638	32756	25063	32628	
1644	0	32700	34732	32724	25966	32887	
1645	0	32699	33944	32720	36140	32827	
1646	0	32578	32328	32713	46680	32775	
1647	0	32607	30816	32708	49219	32114	
1648	0	32653	29696	32711	39322	32500	
1649	0	32636	29863	32708	31069	32755	
1650	0	32636	31387	32711	27804	32775	
1651	0	32518	32765	32711	26310	33005	
1652	0	32594	33673	32751	27493	32891	
1653	0	32678	34017	32746	26583	32757	
1654	0	32790	33963	32726	27743	32927	
1655	0	32827	33315	32743	30009	33005	
1656	0	32850	31876	32687	34771	33020	
1657	0	33014	30279	32660	39943	32258	
1658	0	32954	29538	32486	42631	32598	
1659	0	32849	29867	32535	41433	34169	
1660	0	32770	31303	32476	34311	34542	
1661	0	32693	32391	32594	26204	31940	
1662	0	32700	32382	32686	21337	31742	
1663	0	32730	31030	32837	24729	32997	
1664	0	32846	29874	32822	31411	32774	
1665	0	32786	29875	32775	37831	32815	
1666	0	32698	30781	32694	39012	32719	
1667	0	32647	31911	32702	36999	32751	
1668	0	32610	32348	32737	32768	32832	
1669	0	32544	32351	32647	31698	33042	
1670	0	32711	32583	32551	33287	32909	
1671	0	32739	32575	32594	31333	33049	
1672	0	32736	32815	32699	30246	32334	
1673	0	32712	33511	32762	33446	32827	
1674	0	32748	34427	32725	34298	32492	
1675	0	32738	35079	32767	31775	33039	
1676	0	32630	34994	32800	34758	32685	
1677	0	32629	35237	32699	36124	32800	
1678	0	32684	35175	32730	36295	32850	
1679	0	32685	34559	32738	35803	32911	
1680	0	32722	33585	32647	34130	32787	
1681	0	32831	32889	32674	32622	32592	
1682	0	32655	32576	32741	31567	32829	
1683	0	32736	32923	32803	30855	33345	
1684	0	32792	32888	32742	30241	33159	
1685	0	32824	33474	32691	28531	32863	
1686	0	32803	34327	32755	31289	33017	
1687	0	32789	34637	32674	30441	32775	
1688	0	32864	34841	32671	30050	32745	
1689	0	32973	34758	32701	29531	32674	
1690	0	32735	33378	32546	31325	32661	
1691	0	32802	31810	32602	35410	33095	
1692	0	32905	30094	32882	37511	32558	
1693	0	32736	28409	32647	36100	32731	
1694	0	32844	27820	32667	32491	32601	
1695	0	32941	28443	32743	30207	32439	
1696	0	32888	29791	32569	29127	33027	
1697	0	32586	31596	32513	30922	33589	
1698	0	32462	33179	32519	35169	33078	
1699	0	32478	33917	32527	38642	32883	
1700	0	32594	34415	32569	39772	32711	
1701	0	32656	34806	32659	35685	32909	
1702	0	32740	35091	32775	31867	33015	
1703	0	32707	35159	32813	30695	32791	
1704	0	32680	34051	32945	30703	32967	
1705	0	32824	32829	32808	31307	32839	
1706	0	32707	31633	32763	32598	32853	
1707	0	32641	31089	32743	32557	32823	
1708	0	32697	31133	32715	32639	33016	
1709	0	32708	32143	32935	32912	32503	
1710	0	32532	34162	32847	33477	32705	
1711	0	32744	35847	32876	31153	32758	
1712	0	32658	37215	32863	33186	32337	
1713	0	32865	37867	32775	39521	33172	
1714	0	32904	36541	32775	34457	32882	
1715	0	32992	34104	32835	26215	32672	
1716	0	33154	30727	32687	26631	32381	
1717	0	33201	27300	32769	31595	32956	
1718	0	33195	25413	32441	28099	33104	
1719	0	33176	25881	32611	27493	33081	
1720	0	32994	27831	32662	34106	32787	
1721	0	32944	29886	32603	37909	32711	
1722	0	32864	32073	32587	36166	32731	
1723	0	32774	33652	32415	34606	32755	
1724	0	32835	34608	32590	38604	33063	
1725	0	32924	34951	32733	37483	32930	
1726	0	33032	34646	32667	27687	32795	
1727	0	32939	34933	32835	26603	33110	
1728	0	32742	34415	32976	30667	32967	
1729	0	32592	33618	33249	32379	31972	
1730	0	32704	32579	33054	30572	32495	
1731	0	32917	31365	32666	27993	33035	
1732	0	32996	30843	32121	27331	33075	
1733	0	32942	31477	32514	29057	33202	
1734	0	32897	32608	32762	33397	32509	
1735	0	32993	32845	32935	37246	32408	
1736	0	33072	32132	32848	42339	32875	
1737	0	33248	31078	32647	43799	33184	
1738	0	33110	31303	32647	39387	33109	
1739	0	32992	31087	32685	33920	32965	
1740	0	32770	30712	32767	33055	32543	
1741	0	32682	30486	32675	32723	32542	
1742	0	32591	30591	32571	31314	32989	
1743	0	32722	31669	32605	28177	32771	
1744	0	32744	32957	32741	29514	33141	
1745	0	32739	34467	32855	32738	32664	
1746	0	32786	35575	32865	35725	32898	
1747	0	32709	35801	32807	32877	32606	
1748	0	32532	35508	32847	29797	33011	
1749	0	32642	35305	33037	29831	33083	
1750	0	32744	34799	33095	24326	33108	
1751	0	32608	34026	32912	28125	32410	
1752	0	32627	33535	32435	35837	32722	
1753	0	32688	33414	32391	41539	32402	
1754	0	32718	32658	32529	40154	32947	
1755	0	32621	32041	32681	35056	33005	
1756	0	32716	32246	32837	33831	32743	
1757	0	32933	32837	32847	29042	32625	
1758	0	32976	33216	32839	23947	32824	
1759	0	32994	33214	32732	24828	32960	
1760	0	32893	33517	32680	28505	32955	
1761	0	32903	33695	32838	32678	32707	
1762	0	32811	34213	32348	33654	32989	
1763	0	32726	34091	31855	32263	32755	
1764	0	32855	33234	32047	29872	32793	
1765	0	32892	31777	32239	30825	32401	
1766	0	32955	29885	32477	34695	32845	
1767	0	33060	28874	32915	40898	32856	
1768	0	33024	29440	32976	45855	32559	
1769	0	33040	30500	33030	42713	32687	
1770	0	33016	31319	33042	33024	32848	
1771	0	32936	31807	33159	28054	32861	
1772	0	32946	32323	33011	30752	32947	
1773	0	32954	32775	32801	31939	33123	
1774	0	33017	33067	32804	34291	33042	
1775	0	32996	33731	33031	34390	32687	
1776	0	32837	34167	33133	33189	32811	
1777	0	32757	33679	33239	32847	32793	
1778	0	32772	33007	33317	30279	32665	
1779	0	32621	32603	33195	28633	33149	
1780	0	32604	32365	33133	28408	32889	
1781	0	32698	32733	32787	32006	32717	
1782	0	32730	33951	31794	35120	32566	
1783	0	32869	35213	31056	38114	32859	
1784	0	32898	36300	31239	31699	32802	
1785	0	32804	36497	32123	20654	32607	
1786	0	32693	36497	32809	23067	32600	
1787	0	32646	35046	33095	30364	32874	
1788	0	32484	33299	33090	40162	32459	
1789	0	32460	30856	33248	46170	32851	
1790	0	32493	28892	33216	46338	32849	
1791	0	32649	28324	32983	41560	32740	
1792	0	33071	29212	32162	32605	32530	
1793	0	33078	30754	31630	22431	32657	
1794	0	32992	31672	32203	24678	33043	
1795	0	32946	31543	32703	30625	33557	
1796	0	33080	30806	33158	28847	33375	
1797	0	32876	30247	33143	26001	33161	
1798	0	32660	30576	33107	25122	32917	
1799	0	32675	31205	32992	30333	32978	
1800	0	32764	32374	32870	37006	32794	
1801	0	32852	33375	32751	41360	32449	
1802	0	32851	34426	32672	41649	32404	
1803	0	32634	34951	32769	39403	32254	
1804	0	32553	34502	32612	32635	32563	
1805	0	32439	33326	32903	23845	32928	
1806	0	32495	31701	32730	24039	33101	
1807	0	32557	29466	32818	27136	33189	
1808	0	32516	28551	32745	30147	32793	
1809	0	32668	29049	32867	32191	32415	
1810	0	32805	30447	32839	30566	32655	
1811	0	32680	32086	32933	26631	32831	
1812	0	32630	33763	32839	25327	32751	
1813	0	32640	34682	32620	34510	32941	
1814	0	32552	35376	32775	45712	32805	
1815	0	32516	34958	32923	50319	32756	
1816	0	32483	34776	32745	49760	32789	
1817	0	32602	34803	32437	45175	32613	
1818	0	32612	34294	32640	34347	32809	
1819	0	32588	33242	32812	20232	33054	
1820	0	32454	32080	32775	17881	32735	
1821	0	32494	31632	32585	25048	32825	
1822	0	32565	32464	32592	32741	33266	
1823	0	32451	33543	32737	35349	33133	
1824	0	32490	34082	32797	33549	33189	
1825	0	32596	33730	32667	32623	32967	
1826	0	32526	32099	32563	32682	32561	
1827	0	32692	30587	32683	33783	32595	
1828	0	32832	29461	32775	33269	32643	
1829	0	32844	29455	32757	35031	32647	
1830	0	33001	30514	32621	36124	32899	
1831	0	32911	32111	32847	33129	33378	
1832	0	32890	33259	32771	30935	33261	
1833	0	32786	33511	32917	31568	33743	
1834	0	32775	33636	32655	33559	33267	
1835	0	32658	34226	32564	33210	32121	
1836	0	32680	34587	32553	32557	32201	
1837	0	32775	35100	32449	33147	31786	
1838	0	32840	34734	32284	31023	32159	
1839	0	32746	34759	32274	23483	32493	
1840	0	32803	34559	32559	22400	32470	
1841	0	32736	33958	32594	27227	32879	
1842	0	32608	33824	32774	37234	32766	
1843	0	32501	33655	32941	43258	32707	
1844	0	32547	34174	32839	43135	32571	
1845	0	32647	34336	32939	42306	32442	
1846	0	32650	33634	32794	38302	33144	
1847	0	32760	33232	32819	32743	33523	
1848	0	32740	32314	32505	26667	33330	
1849	0	32910	31639	32599	25151	33154	
1850	0	32921	30648	32694	29112	33182	
1851	0	33156	29767	32813	31873	32791	
1852	0	33123	29579	32801	30269	33179	
1853	0	32909	30108	32615	27164	33149	
1854	0	32744	31105	32813	27649	32263	
1855	0	32724	32362	32831	28231	32360	
1856	0	32706	33264	32963	32459	32944	
1857	0	32806	32985	32855	38429	33121	
1858	0	32987	32449	32523	41323	32975	
1859	0	33085	32455	32545	38679	33021	
1860	0	33190	32177	32560	35741	33349	
1861	0	32922	32999	32727	33982	33219	
1862	0	32655	34481	32659	31089	32634	
1863	0	32464	34976	32825	26241	32993	
1864	0	32455	34444	32669	28257	32836	
1865	0	32676	32912	32862	34405	32459	
1866	0	32829	31297	32867	35215	32638	
1867	0	32699	30323	33051	33859	32551	
1868	0	32554	30083	33011	35094	32377	
1869	0	32655	30235	33042	35763	32452	
1870	0	32706	31375	33095	34241	32705	
1871	0	32786	31918	32589	26997	32967	
1872	0	32740	32195	32659	26053	33041	
1873	0	32672	32422	32742	30821	32907	
1874	0	32748	32522	32205	38864	32973	
1875	0	32821	32511	31485	42104	32972	
1876	0	32788	32577	31547	37858	33073	
1877	0	32839	33103	32472	33335	32339	
1878	0	32774	33213	32738	35422	32098	
1879	0	32608	33778	32775	37417	32659	
1880	0	32658	34113	32802	32245	33343	
1881	0	32680	34298	32625	25192	33339	
1882	0	32673	33536	32812	21865	32075	
1883	0	32744	32765	32775	25912	32310	
1884	0	32723	32989	32899	28789	33189	
1885	0	32656	33735	32817	31087	32933	
1886	0	32704	34902	32903	32555	32559	
1887	0	32683	35767	32847	33461	32698	
1888	0	32604	35151	32949	34567	33511	
1889	0	32632	33722	32975	36103	33644	
1890	0	32795	32238	32932	37341	33171	
1891	0	32829	29584	32910	35507	32599	
1892	0	32948	28088	32880	31767	32580	
1893	0	32932	29157	32857	30477	32499	
1894	0	33008	30727	32557	33401	31875	
1895	0	32836	32011	32727	34375	32334	
1896	0	32787	33155	32583	34951	32485	
1897	0	32681	34098	32760	31585	32871	
1898	0	32554	34095	32659	30692	33019	
1899	0	32703	33443	32755	30051	33193	
1900	0	32775	32711	32810	31485	33286	
1901	0	32741	32670	32643	34912	33091	
1902	0	32756	32616	32745	40200	33040	
1903	0	32794	32487	32626	43355	32944	
1904	0	32770	33005	32760	32732	32818	
1905	0	32844	33158	32732	22703	32615	
1906	0	32792	33336	32849	22247	32696	
1907	0	32873	33497	32858	25850	33023	
1908	0	32758	33935	32707	31141	32828	
1909	0	32726	34874	32697	37600	32653	
1910	0	32924	35256	32417	42416	32925	
1911	0	33138	35007	32576	46075	32967	
1912	0	33116	33570	32391	39233	33004	
1913	0	33033	31591	32521	31988	33083	
1914	0	33181	29563	32453	26869	32750	
1915	0	33301	29074	32603	26035	33027	
1916	0	33261	30899	32679	26283	32746	
1917	0	33136	33366	32722	26347	32471	
1918	0	33065	34656	32898	28702	32809	
1919	0	32747	33957	32702	32741	32967	
1920	0	32680	32493	32660	36021	33062	
1921	0	32746	31416	32639	39047	32837	
1922	0	32860	30083	32853	39092	32688	
1923	0	33043	29522	32963	35830	32711	
1924	0	33186	29895	32915	33147	32695	
1925	0	33058	31518	32797	31369	32679	
1926	0	32872	32999	32587	33997	32653	
1927	0	32853	33543	32715	36059	32847	
1928	0	32606	32337	32435	33432	33010	
1929	0	32382	31603	32331	31975	32833	
1930	0	32361	31643	32600	27509	32912	
1931	0	32556	32474	32763	23603	32767	
1932	0	32760	32868	32675	26749	32882	
1933	0	32756	33364	32797	34400	33003	
1934	0	32768	33074	32695	34918	33065	
1935	0	32861	32647	32651	30333	33138	
1936	0	32737	31909	32829	29791	32362	
1937	0	32734	31224	32890	34765	32349	
1938	0	32788	31238	32847	37933	32627	
1939	0	32699	31699	32903	34963	33054	
1940	0	32583	32263	32711	30661	32905	
1941	0	32600	32039	32868	28574	32871	
1942	0	32708	31951	32902	30724	33280	
1943	0	32713	31981	33081	33635	33278	
1944	0	32775	32839	33083	34627	32935	
1945	0	32609	33667	33036	35613	33088	
1946	0	32361	34287	33281	39058	33377	
1947	0	32429	34957	33184	42368	31972	
1948	0	32708	35542	33089	41956	31955	
1949	0	32904	37233	32199	37762	32337	
1950	0	33035	38289	31608	33152	32583	
1951	0	32993	38224	31707	27565	32921	
1952	0	32987	36741	32358	25013	32891	
1953	0	32906	33897	32403	26961	32601	
1954	0	32933	31233	32577	24631	32514	
1955	0	32966	30395	32987	27045	32309	
1956	0	33034	31567	33091	28270	32615	
1957	0	32898	32647	33343	30586	33189	
1958	0	32753	32506	33195	33927	33319	
1959	0	32616	31890	33403	39298	32666	
1960	0	32700	30215	32881	41897	32901	
1961	0	32765	28339	32031	41147	33125	
1962	0	32842	27367	31156	36062	33155	
1963	0	32812	27428	31701	26187	33201	
1964	0	32899	28925	32741	26147	33505	
1965	0	32818	31231	32491	32804	33227	
1966	0	32788	33775	32573	35103	32931	
1967	0	32477	36203	32505	35094	32613	
1968	0	32506	36935	32306	36163	32101	
1969	0	32495	37191	32725	35867	32859	
1970	0	32696	35818	32672	32679	32033	
1971	0	32544	33884	32774	26518	32075	
1972	0	32592	31313	32748	23217	32613	
1973	0	32557	29410	32956	27607	32952	
1974	0	32542	28047	33142	29672	33075	
1975	0	32824	28575	32875	29492	33267	
1976	0	32815	31072	32994	31750	32679	
1977	0	32670	33644	32831	34726	32365	
1978	0	32604	35104	33045	40611	32805	
1979	0	32628	35936	33138	40155	33057	
1980	0	32587	35594	33278	34101	33074	
1981	0	32648	35379	33275	28533	32993	
1982	0	32712	35045	33216	32583	32962	
1983	0	32865	35295	33327	37331	33044	
1984	0	33036	34386	33179	33286	33143	
1985	0	32990	31986	33058	30541	32986	
1986	0	33007	28765	32497	32820	32857	
1987	0	33016	26748	32383	37959	33039	
1988	0	32960	26511	32371	38227	33159	
1989	0	32715	28473	32428	34394	32722	
1990	0	32628	31099	32281	28905	32601	
1991	0	32566	33149	32285	23687	32943	
1992	0	32455	32932	32322	25282	33023	
1993	0	32490	32021	32262	34211	32724	
1994	0	32720	31915	32897	40327	32704	
1995	0	32805	33595	33108	39126	32807	
1996	0	32784	35490	32736	39308	32967	
1997	0	32738	37465	32440	37871	32927	
1998	0	32904	39323	31814	35700	32173	
1999	0	32925	39703	31800	28167	33059	
2000	0	32985	38640	32480	19598	32452	
2001	0	32987	36216	32804	17288	32678	
2002	0	32924	32049	32882	25031	33000	
2003	0	33106	27962	33035	33328	33125	
2004	0	33184	25934	32959	37134	32651	
2005	0	33220	26439	33075	36747	32759	
2006	0	33101	27762	32871	37543	32980	
2007	0	32978	29266	32921	38439	32675	
2008	0	32816	30611	32679	35881	32439	
2009	0	32667	31259	32902	32179	32869	
2010	0	32746	31493	32723	26442	33145	
2011	0	32812	32223	32833	22646	32888	
2012	0	32598	33438	32737	25151	32616	
2013	0	32556	34941	32847	30999	32832	
2014	0	32608	35670	33074	36383	33017	
2015	0	32404	35810	32817	38277	32963	
2016	0	32379	34473	32549	40854	32569	
2017	0	32644	33200	32809	43103	32541	
2018	0	32688	32663	32855	40194	32985	
2019	0	32855	33088	32834	32179	33158	
2020	0	32842	34242	33216	33401	32905	
2021	0	32672	35901	32997	35752	32711	
2022	0	32647	35397	31797	36607	32741	
2023	0	32724	34359	31946	36231	33158	
2024	0	32796	32820	32401	34424	33211	
2025	0	33113	32082	32683	30455	32879	
2026	0	33133	31590	32751	29542	32451	
2027	0	33116	30742	32855	28727	32555	
2028	0	33260	29567	32950	27819	32082	
2029	0	33176	29213	32567	29890	32877	
2030	0	32961	30479	32452	30937	32898	
2031	0	32572	32873	32613	31440	32635	
2032	0	32429	34261	32793	30061	32687	
2033	0	32507	33818	32824	26338	33526	
2034	0	32654	31933	32868	24506	33206	
2035	0	32624	30168	32999	25382	32873	
2036	0	32722	29591	33163	31055	32775	
2037	0	32717	30816	33019	38133	33091	
2038	0	32620	32391	33223	38467	32917	
2039	0	32493	33848	33263	32946	33108	
2040	0	32549	34710	33183	27809	32863	
2041	0	32724	35135	33074	28411	32541	
2042	0	32764	35030	32507	35053	32532	
2043	0	32657	34539	31637	38111	33158	
2044	0	32784	33908	31281	42030	33057	
2045	0	32914	34016	31437	46781	32321	
2046	0	32972	34561	31730	47523	32476	
2047	0	32993	34792	32288	37703	32813	
2048	0	33008	34707	32635	36315	32647	
2049	0	32995	33863	32562	36380	32935	
2050	0	32970	32088	32772	29482	33592	
2051	0	32980	30880	32899	23397	32692	
2052	0	32824	30703	33065	25189	32495	
2053	0	32805	31553	33195	28034	32903	
2054	0	32853	32333	33031	29114	33023	
2055	0	32814	32115	32740	27323	32562	
2056	0	32706	32089	32715	25057	31984	
2057	0	32612	32885	33069	25473	32351	
2058	0	32480	33477	32849	29981	32885	
2059	0	32717	33543	32635	33050	33078	
2060	0	32860	32767	32723	35013	32767	
2061	0	32892	31281	32959	38633	32552	
2062	0	32946	29293	33015	39408	32489	
2063	0	33306	28225	32869	38331	32884	
2064	0	33369	29559	32688	34506	33045	
2065	0	33420	31444	32753	26821	32981	
2066	0	33368	32349	32744	23144	33055	
2067	0	33048	32051	32743	24338	33143	
2068	0	33040	31628	32784	31334	32905	
2069	0	32843	31341	32760	39519	33144	
2070	0	32832	31373	32629	43375	32910	
2071	0	32812	31737	32701	37850	32210	
2072	0	32592	31736	32759	33415	32563	
2073	0	32531	31999	32878	34311	33099	
2074	0	32450	32978	33055	33607	33235	
2075	0	32384	34711	33131	27988	33339	
2076	0	32356	35714	33159	28188	33159	
2077	0	32412	36589	32622	35441	32288	
2078	0	32419	36857	31879	36927	32597	
2079	0	32569	36711	32103	36378	32787	
2080	0	32644	35685	32618	33741	33287	
2081	0	32586	34015	32933	31140	33122	
2082	0	32724	31995	32953	29359	32721	
2083	0	32753	30836	32763	31937	32819	
2084	0	32556	30577	32919	34521	32893	
2085	0	32584	30258	32917	34436	32646	
2086	0	32713	29607	32969	36087	32492	
2087	0	32735	29541	32982	33648	32868	
2088	0	32664	30598	32647	29695	32606	
2089	0	32576	31909	32506	27972	32223	
2090	0	32425	33817	32105	29165	32641	
2091	0	32527	36002	32390	32855	32750	
2092	0	32641	37895	32922	33615	32827	
2093	0	32526	39027	33133	33390	32941	
2094	0	32801	38523	32879	32304	33241	
2095	0	32890	36000	32384	29592	33479	
2096	0	32796	32765	32276	28248	32833	
2097	0	32775	29679	32791	31047	32658	
2098	0	32768	28432	32665	35997	32508	
2099	0	32768	28763	32372	38471	32775	
2100	0	32850	29447	32597	38295	32531	
2101	0	32775	30423	32883	38917	32486	
2102	0	32928	31718	32740	40233	32523	
2103	0	33018	33537	33018	36107	33274	
2104	0	32965	34623	32915	33799	33159	
2105	0	32999	34309	32346	32952	32613	
2106	0	33210	32568	32245	26578	32300	
2107	0	33147	31330	32791	21918	32439	
2108	0	33043	30543	33144	23702	33134	
2109	0	32845	30795	33127	25834	32578	
2110	0	33095	31823	31958	29703	32875	
2111	0	33128	32363	30851	31606	33229	
2112	0	33139	32429	31664	31823	33035	
2113	0	33081	31645	32506	34189	33159	
2114	0	32972	30407	32775	36845	32882	
2115	0	32946	31212	33103	38910	32798	
2116	0	32815	33431	33287	37315	32739	
2117	0	32576	34627	33187	35506	32927	
2118	0	32438	33863	33195	36743	32721	
2119	0	32443	32500	33197	34383	32646	
2120	0	32528	30846	33230	32707	33017	
2121	0	32530	30683	32917	30759	32727	
2122	0	32357	31403	32817	29021	32763	
2123	0	32360	32903	32809	31229	32839	
2124	0	32132	34091	32791	35174	32947	
2125	0	32000	35072	32934	35213	32947	
2126	0	31988	35013	32935	33787	32652	
2127	0	32101	34887	33042	31901	32711	
2128	0	32434	34359	32789	29177	33024	
2129	0	32604	34439	32861	30526	33063	
2130	0	32656	35122	32836	35335	32817	
2131	0	32626	35778	32839	38130	32883	
2132	0	32590	35591	32991	32988	32658	
2133	0	32489	34362	32706	29703	32485	
2134	0	32471	31584	32837	32775	32978	
2135	0	32709	29265	32903	33263	33177	
2136	0	32784	28285	33160	29579	33594	
2137	0	32802	28618	33201	24715	33442	
2138	0	32931	29686	33081	26236	33273	
2139	0	32881	30855	32583	31293	33506	
2140	0	32855	31619	32089	34823	33351	
2141	0	32775	32214	32370	39465	33229	
2142	0	32780	32933	32607	40027	32481	
2143	0	32805	33287	32413	41225	31170	
2144	0	32825	32925	32240	42792	30352	
2145	0	32800	32152	32609	39517	31095	
2146	0	32813	31973	32361	29408	32608	
2147	0	32756	34224	32628	22151	32736	
2148	0	32745	38022	32821	18920	32813	
2149	0	32792	40149	32998	24510	33492	
2150	0	32853	40207	32835	34257	33383	
2151	0	32987	38113	32747	39653	33648	
2152	0	33028	33555	32589	40724	33429	
2153	0	33228	28947	32794	33039	33384	
2154	0	33325	26136	32876	22214	32933	
2155	0	33250	25999	32734	21223	33171	
2156	0	32989	26857	32743	23362	32955	
2157	0	32904	28080	32688	30963	32864	
2158	0	32878	29056	32762	43456	32573	
2159	0	32752	29778	32765	54944	32178	
2160	0	32761	30456	32523	54610	32760	
2161	0	32720	31195	32616	36313	32898	
2162	0	32817	32004	32802	22830	32301	
2163	0	32969	33401	33191	18591	32238	
2164	0	32888	33427	33373	18502	32477	
2165	0	33012	33336	33257	24797	33068	
2166	0	32820	34055	32711	35232	33010	
2167	0	32701	34412	32380	42322	32902	
2168	0	32513	34047	32662	42790	32539	
2169	0	32593	33692	32535	40135	32960	
2170	0	32566	34578	32275	37469	33060	
2171	0	32508	35527	31880	31163	33216	
2172	0	32402	36358	31611	24712	32811	
2173	0	32775	36794	32006	23040	33140	
2174	0	32877	36621	32191	26883	32743	
2175	0	32928	35360	32801	29907	32425	
2176	0	33072	34231	33023	32183	32756	
2177	0	32926	33799	33103	35548	32860	
2178	0	32586	32513	32919	37215	32376	
2179	0	32474	31226	33076	34183	32827	
2180	0	32296	30100	32870	27421	33089	
2181	0	32704	28524	33049	24919	32880	
2182	0	32948	28582	32869	28054	32918	
2183	0	33204	30240	32977	36060	32824	
2184	0	33122	32797	32585	42778	32757	
2185	0	33128	34940	32801	43481	32534	
2186	0	32744	35179	32940	35539	32677	
2187	0	32809	33765	32767	30144	32697	
2188	0	32989	32276	32786	31901	32711	
2189	0	32905	29987	32722	33671	32557	
2190	0	32916	27299	32819	33495	32910	
2191	0	32954	25623	32999	32306	32692	
2192	0	32829	26187	33107	33095	33442	
2193	0	32934	28474	32947	34145	32711	
2194	0	32775	31824	32711	32632	32722	
2195	0	32364	34720	32263	31239	32775	
2196	0	32356	36453	31727	28964	32620	
2197	0	32323	35744	31389	28347	32639	
2198	0	32518	35175	32217	30397	33119	
2199	0	32512	34311	32747	33751	32839	
2200	0	32798	34263	32937	34571	32797	
2201	0	32920	33306	32711	32768	32638	
2202	0	32914	33106	32561	28946	32667	
2203	0	33060	33879	32695	29123	33141	
2204	0	33102	34311	33167	33391	32483	
2205	0	33170	34693	33260	36259	32634	
2206	0	33099	34115	32884	39431	32901	
2207	0	32948	33650	32985	38277	32678	
2208	0	32705	32240	33287	34969	33115	
2209	0	32786	30709	33347	31723	33252	
2210	0	32828	30703	33301	27669	33131	
2211	0	32787	31891	32174	28556	33025	
2212	0	32722	32994	31053	34351	32998	
2213	0	32775	34254	31730	40902	32462	
2214	0	32828	35739	32323	43375	31977	
2215	0	32735	35698	32672	36190	32471	
2216	0	32424	35067	32877	28826	32699	
2217	0	32132	33653	32891	26482	32762	
2218	0	32138	32067	32884	28876	33066	
2219	0	32512	30834	32967	29144	33129	
2220	0	32680	31533	32989	26911	33337	
2221	0	32711	33117	32964	27463	32992	
2222	0	32724	35335	32888	32317	32927	
2223	0	32749	36807	32932	33415	32680	
2224	0	32617	38002	32847	34080	32735	
2225	0	32706	36967	32861	33917	32849	
2226	0	32821	34303	32647	32483	32775	
2227	0	32992	31633	32767	33792	32917	
2228	0	32965	28931	32767	33450	33223	
2229	0	33045	27152	32903	35441	33284	
2230	0	33076	26366	32906	37325	32837	
2231	0	33038	26832	32869	34069	32421	
2232	0	33081	28655	32823	32275	32699	
2233	0	33011	29599	32564	31652	32821	
2234	0	33001	29021	32587	28331	33470	
2235	0	32879	28840	32711	27104	32923	
2236	0	32804	30556	32762	31317	32691	
2237	0	32692	32211	32735	33747	33512	
2238	0	32541	32999	32647	33723	33933	
2239	0	32516	32869	32789	33944	32855	
2240	0	32891	32967	32853	40400	32172	
2241	0	33009	33694	32873	49516	31493	
2242	0	32858	34400	32784	45122	31484	
2243	0	32724	35072	32906	31744	31515	
2244	0	32693	35272	33048	21029	31732	
2245	0	32621	35369	33261	19437	32630	
2246	0	32646	34727	33203	25741	33922	
2247	0	32580	33843	33175	29078	33983	
2248	0	32652	33579	32551	27101	32621	
2249	0	32792	33163	31661	28367	32285	
2250	0	32704	32013	31351	31187	32724	
2251	0	32709	30743	31797	33095	33595	
2252	0	32800	29562	32427	34112	33120	
2253	0	32952	29470	32390	37097	32805	
2254	0	32949	30367	32071	40931	33193	
2255	0	32886	32261	31629	38672	33104	
2256	0	32916	34515	32287	37736	32517	
2257	0	32985	36119	32775	38448	32871	
2258	0	32929	35715	32823	37243	32839	
2259	0	32969	34653	32818	32545	32718	
2260	0	33012	33506	32801	26439	32979	
2261	0	32954	32116	33071	25506	33106	
2262	0	32676	31878	33159	25539	33095	
2263	0	32432	31815	33230	27259	33273	
2264	0	32260	31295	33102	30245	32952	
2265	0	32404	31646	33176	33910	32253	
2266	0	32486	32723	33159	34870	31926	
2267	0	32531	33934	32943	34503	33095	
2268	0	32692	35190	32981	31885	33283	
2269	0	32818	35883	32760	28676	32805	
2270	0	32902	36079	32833	25155	32569	
2271	0	32647	36302	32807	24306	32531	
2272	0	32620	36584	32713	34070	32736	
2273	0	32797	37186	32775	44513	33050	
2274	0	32914	36802	32766	45525	33001	
2275	0	32908	35359	32794	45923	31738	
2276	0	32988	32583	32903	43298	32397	
2277	0	32973	30022	32988	37627	33186	
2278	0	32899	29677	32658	28876	32812	
2279	0	32936	30427	32096	28022	32708	
2280	0	32912	31547	32093	31891	33027	
2281	0	32804	31040	32566	30840	32974	
2282	0	32720	29261	32823	27527	32580	
2283	0	32839	27427	32873	27867	32870	
2284	0	32891	26503	32775	32957	32937	
2285	0	32890	26714	32978	36358	32832	
2286	0	33105	28328	32914	37240	32706	
2287	0	32964	30957	33067	34895	32717	
2288	0	32695	32617	33018	30458	32509	
2289	0	32632	32457	32861	28470	32539	
2290	0	32658	31801	32871	25496	32691	
2291	0	32482	32168	32723	26297	32745	
2292	0	32474	33671	32464	29437	32859	
2293	0	32801	36814	31861	30556	32854	
2294	0	32722	39443	32069	27381	33010	
2295	0	32626	39919	32551	28507	33183	
2296	0	32556	38063	32711	32295	32935	
2297	0	32683	34806	32790	33430	32704	
2298	0	32755	32091	33052	35539	32489	
2299	0	32626	30531	33121	42146	33166	
2300	0	32645	30559	33057	45682	32857	
2301	0	32672	31874	33067	37353	32553	
2302	0	32775	33475	32736	27809	32726	
2303	0	32979	33219	32047	32095	32875	
2304	0	32961	31199	32335	38545	32430	
2305	0	32916	30529	32770	36395	32484	
2306	0	32839	31291	32851	30492	32919	
2307	0	32969	32183	32869	26997	32746	
2308	0	32968	31488	32803	23680	33162	
2309	0	32868	29814	32775	25846	33239	
2310	0	32786	27767	32818	34058	32692	
2311	0	32825	27614	32645	40290	32659	
2312	0	32863	28246	32599	38711	32963	
2313	0	32741	29282	32443	37232	32899	
2314	0	32784	31511	32635	35883	32749	
2315	0	32868	33373	32806	32787	32893	
2316	0	32541	35401	32886	27689	33119	
2317	0	32577	36139	32851	26534	33155	
2318	0	32722	36034	32853	25865	32775	
2319	0	32832	36785	32850	28397	32805	
2320	0	32775	36210	32812	33927	32595	
2321	0	32875	34779	32751	34166	32410	
2322	0	32851	32445	32677	33610	32883	
2323	0	32733	30553	32875	31401	33062	
2324	0	32804	29743	32839	33114	33159	
2325	0	33012	29227	32825	32842	32690	
2326	0	32904	29349	32765	35137	32646	
2327	0	33061	30157	32855	38303	32553	
2328	0	32996	31219	32923	38723	32613	
2329	0	33056	33447	32967	39265	32815	
2330	0	32765	34770	33051	34375	32511	
2331	0	32420	35651	32821	33384	32509	
2332	0	32440	37075	32219	31494	32580	
2333	0	32690	38007	32154	28195	33185	
2334	0	32466	38298	32407	27599	32871	
2335	0	32293	37665	32547	29986	33306	
2336	0	32315	37134	32707	31071	33150	
2337	0	32336	36419	32399	32775	33297	
2338	0	32450	36571	32312	34758	33035	
2339	0	32557	35565	32639	37895	33097	
2340	0	32718	33656	32739	39355	32729	
2341	0	32792	30452	32833	34875	32640	
2342	0	33052	27005	32837	27014	32621	
2343	0	33266	24668	33119	21193	32879	
2344	0	33331	25340	33227	22460	33114	
2345	0	32985	27596	32930	27787	32925	
2346	0	32640	29039	33003	33903	32986	
2347	0	32483	30081	33190	40878	32546	
2348	0	32632	31499	33159	43688	32605	
2349	0	32677	33759	32941	39779	33450	
2350	0	32849	35952	32751	32742	32964	
2351	0	32692	36871	32165	33389	33038	
2352	0	32740	37940	32566	35405	32579	
2353	0	32902	37483	33014	34137	32623	
2354	0	32986	36503	33008	31528	32519	
2355	0	32944	35220	32450	28775	32833	
2356	0	32955	34424	31255	25294	32519	
2357	0	32920	32123	31847	26187	31734	
2358	0	32709	29427	31886	30016	32214	
2359	0	32832	26335	32311	32624	32612	
2360	0	33017	24672	32861	30580	32594	
2361	0	32809	26527	33338	28498	32891	
2362	0	32675	28871	33254	31513	32835	
2363	0	32656	32088	33142	39501	32937	
2364	0	32653	34619	33193	44167	32994	
2365	0	32677	37104	33344	44022	33047	
2366	0	32664	38627	33328	39911	33319	
2367	0	32360	38903	32334	36893	33563	
2368	0	32416	38500	31924	32115	33566	
2369	0	32487	36818	31913	26902	33167	
2370	0	32424	35479	31635	30087	33438	
2371	0	32248	33402	32118	32031	32306	
2372	0	32617	30637	32839	25018	32178	
2373	0	32864	28857	33114	19240	32725	
2374	0	32961	28483	33178	24533	32950	
2375	0	32760	28340	33059	33817	32540	
2376	0	32672	27693	32958	39564	32912	
2377	0	32839	28551	32740	39931	32509	
2378	0	33074	29838	33014	33472	32436	
2379	0	33566	29865	33215	28974	32453	
2380	0	33638	29951	33191	31421	31911	
2381	0	33496	31104	33215	34171	32728	
2382	0	33241	32003	33051	34607	32744	
2383	0	33060	31975	32909	32865	33214	
2384	0	32818	31281	32711	32487	33081	
2385	0	32902	30877	32743	31965	33195	
2386	0	32752	31303	32638	33728	33413	
2387	0	32514	32838	32873	28395	32963	
2388	0	32328	33963	32869	25554	32825	
2389	0	32292	36452	33090	26024	32325	
2390	0	32256	40088	32925	34446	32752	
2391	0	32302	42386	32801	45394	32518	
2392	0	32272	42573	32364	51716	32544	
2393	0	32148	39470	32366	54139	32701	
2394	0	32560	34148	32805	43120	33355	
2395	0	32833	28849	32648	24716	33132	
2396	0	32824	25515	32701	14739	32486	
2397	0	33115	25760	32281	18439	32583	
2398	0	32938	27700	32343	25667	32711	
2399	0	32947	29307	32564	31166	32761	
2400	0	32991	31373	32489	32465	32959	
2401	0	32960	33138	32903	32427	32920	
2402	0	32940	33553	32923	33383	33057	
2403	0	32839	33191	33167	34639	32386	
2404	0	32790	33305	33143	30969	32795	
2405	0	32738	33629	32715	28673	32798	
2406	0	32822	33469	32417	30285	32711	
2407	0	32874	33151	32775	32547	33511	
2408	0	32914	31679	32737	32903	33512	
2409	0	32923	30927	32775	34759	32711	
2410	0	32993	31429	32341	38907	32688	
2411	0	32775	33223	32134	38343	32685	
2412	0	32800	35058	32176	35459	33047	
2413	0	32493	37167	32595	32116	31813	
2414	0	32461	37575	32837	30349	31930	
2415	0	32432	36461	32916	34939	32166	
2416	0	32627	35535	32816	35755	31455	
2417	0	32667	35698	32852	32301	32374	
2418	0	32416	34695	32935	33224	33140	
2419	0	32352	33144	33115	38910	33056	
2420	0	32596	31269	33402	40098	33238	
2421	0	32833	28897	33255	36590	33313	
2422	0	33176	27863	32997	29923	33981	
2423	0	33098	29298	31477	25641	34740	
2424	0	33136	32135	31855	23580	34482	
2425	0	32994	35015	32725	25620	33424	
2426	0	32775	36385	32647	26936	33021	
2427	0	32793	36963	32365	25912	32903	
2428	0	32688	35084	32127	24195	33185	
2429	0	32552	29528	32528	27868	32800	
2430	0	32843	24525	32820	37752	30868	
2431	0	33400	22340	33236	44039	29808	
2432	0	33613	25597	33338	44322	31550	
2433	0	33252	30727	33522	38968	32412	
2434	0	33250	34249	33666	30994	31275	
2435	0	32912	35611	33558	27930	33083	
2436	0	32576	34681	33304	31291	33991	
2437	0	32751	31979	32811	34214	33469	
2438	0	32624	29493	32230	34727	32711	
2439	0	32260	29485	31797	34413	32925	
2440	0	32000	30499	32387	31789	33280	
2441	0	31990	31771	31725	29973	33209	
2442	0	32156	32958	31623	31559	32403	
2443	0	32300	36011	31601	35039	32383	
2444	0	32421	39346	31741	36198	33117	
2445	0	32772	41457	32421	39387	33450	
2446	0	32886	42866	32903	40479	32938	
2447	0	32657	40438	32722	35822	32775	
2448	0	32813	36400	32539	30809	32923	
2449	0	32965	35755	32917	28708	33475	
2450	0	32989	34951	32635	30343	33453	
2451	0	32966	33490	32809	28886	32667	
2452	0	33104	29978	33130	24399	32769	
2453	0	33012	25735	33347	24469	33514	
2454	0	32893	24233	33351	27612	33095	
2455	0	32960	25155	33104	34223	31985	
2456	0	33210	26192	33127	37287	32483	
2457	0	33234	28015	32957	39191	32573	
2458	0	33186	28779	33041	39034	32642	
2459	0	33154	28167	33095	38271	32775	
2460	0	33111	26587	33048	35898	32523	
2461	0	32980	26594	33070	29282	32583	
2462	0	32804	29379	32875	29327	32453	
2463	0	32725	32194	32953	31874	32673	
2464	0	32608	34835	32835	34123	32903	
2465	0	32538	36422	32888	32065	33287	
2466	0	32419	37522	32868	27637	32337	
2467	0	32209	38867	32803	27313	32815	
2468	0	32356	40838	32824	30930	32775	
2469	0	32431	43356	32956	35009	32976	
2470	0	32457	44141	32850	39896	32750	
2471	0	32448	42887	32847	43839	33150	
2472	0	32496	39791	32711	38166	32963	
2473	0	32583	35120	32662	31687	32931	
2474	0	32711	31969	32477	29563	32848	
2475	0	32850	30407	32574	28699	32800	
2476	0	32860	29672	32549	28192	32556	
2477	0	32788	28996	32742	25965	32669	
2478	0	32525	27250	32744	24406	32910	
2479	0	32694	25629	32839	26432	32940	
2480	0	32960	24914	32835	27501	33067	
2481	0	33078	25046	32803	30583	33011	
2482	0	33197	26323	32755	36151	32763	
2483	0	33256	27250	32681	39055	33024	
2484	0	33216	29575	32713	37095	32865	
2485	0	33056	32583	32620	33433	32743	
2486	0	32749	35035	32711	31934	32855	
2487	0	32626	36855	32639	34832	32869	
2488	0	32560	36066	32669	38823	32834	
2489	0	32516	34823	32455	37451	32549	
2490	0	32600	33894	32523	35911	32902	
2491	0	32535	33697	32772	36204	32478	
2492	0	32690	31446	33045	35058	33043	
2493	0	33051	29959	33200	40752	33627	
2494	0	33093	30971	32950	40429	32356	
2495	0	33036	33058	33036	33003	32504	
2496	0	33074	35515	32820	24027	32693	
2497	0	33132	37063	32581	16568	32251	
2498	0	32741	36998	32423	15657	32381	
2499	0	32609	35188	32128	26954	32998	
2500	0	32315	32333	32203	36537	32925	
2501	0	32417	29948	32351	41362	32878	
2502	0	32681	29025	32167	41906	32871	
2503	0	32812	30254	32485	36352	32896	
2504	0	32664	32895	32756	31655	32597	
2505	0	32484	36171	32639	29990	32491	
2506	0	32479	38521	32973	32317	33087	
2507	0	32486	39111	33218	32432	32973	
2508	0	32377	36969	33199	28557	31993	
2509	0	32480	33399	33311	30007	32673	
2510	0	32812	30926	33287	34190	33174	
2511	0	33109	30682	33223	38237	33203	
2512	0	32944	31096	32807	36738	33611	
2513	0	33047	31749	32197	30024	33650	
2514	0	32992	31650	31514	32208	33337	
2515	0	32978	30754	31462	35984	33337	
2516	0	32953	31039	31977	32453	33503	
2517	0	33300	32906	32259	28145	33107	
2518	0	33115	32973	31913	27870	32797	
2519	0	33245	31160	32151	31472	31906	
2520	0	33057	29132	33183	36113	32698	
2521	0	32956	28669	33271	37255	33218	
2522	0	32744	30075	33474	36767	32557	
2523	0	32706	30978	33432	35251	32478	
2524	0	32604	32295	33327	33927	32983	
2525	0	32784	33043	33043	32633	32789	
2526	0	32562	33579	32839	33848	32479	
2527	0	32413	34768	32957	34969	31955	
2528	0	32469	36473	32966	36058	31570	
2529	0	32427	36039	33020	36702	32480	
2530	0	32512	35865	32464	33714	33001	
2531	0	32775	35677	32394	23926	33095	
2532	0	32819	35051	32811	19419	32894	
2533	0	32690	35131	32972	24613	33000	
2534	0	32496	34950	33144	32095	32927	
2535	0	32518	34455	32943	41618	32935	
2536	0	32566	33309	33159	41007	32975	
2537	0	32642	31269	32982	40450	32774	
2538	0	32926	29103	33027	39810	32436	
2539	0	33088	26619	32819	31762	33008	
2540	0	32971	25991	32715	24058	33603	
2541	0	32977	27346	32399	19926	33051	
2542	0	32786	28054	32152	24165	33087	
2543	0	32688	28017	32455	34104	32587	
2544	0	32939	27088	32526	44128	32908	
2545	0	32994	26695	32633	45649	33021	
2546	0	32978	28600	32464	38452	32559	
2547	0	33104	33042	32226	27439	33138	
2548	0	33188	38676	32192	17956	32654	
2549	0	33088	42631	32727	18988	32559	
2550	0	32741	43678	33056	24773	32650	
2551	0	32608	42944	33248	33749	33186	
2552	0	32640	42106	33161	38023	33305	
2553	0	32662	40915	33176	36953	33511	
2554	0	32457	38109	33011	30769	32315	
2555	0	32370	33646	32482	25424	32423	
2556	0	32625	27608	32544	26676	32172	
2557	0	32714	22328	32984	34281	32184	
2558	0	33000	19502	32868	44544	32136	
2559	0	32933	19914	32630	49327	32377	
2560	0	32909	22190	32589	50375	32817	
2561	0	32932	25270	32422	44934	32891	
2562	0	33042	29538	32585	31889	33240	
2563	0	33108	33768	32976	25672	33508	
2564	0	33100	37646	32790	22087	33287	
2565	0	32813	38633	32767	25784	33577	
2566	0	32572	37026	32883	30930	33152	
2567	0	32333	35212	32955	36390	32839	
2568	0	32450	33983	32919	38108	32795	
2569	0	32657	33409	32861	31760	32493	
2570	0	33026	32171	32661	25875	32467	
2571	0	33059	31194	32567	23319	32327	
2572	0	32960	31780	32503	22928	32479	
2573	0	32956	33485	32763	24726	32711	
2574	0	32924	35545	32836	29667	32495	
2575	0	32864	36423	32262	38102	32902	
2576	0	32931	37889	32167	41260	33537	
2577	0	32821	37568	32586	32583	33546	
2578	0	32690	35222	32819	25381	33095	
2579	0	32696	32184	33001	30296	33556	
2580	0	32634	29703	33046	43446	32839	
2581	0	32327	30478	32990	50736	32207	
2582	0	32252	32184	32792	47616	32390	
2583	0	32242	33741	32654	37046	32630	
2584	0	32389	34712	32750	25607	32881	
2585	0	32562	34984	32754	16920	33142	
2586	0	32632	33439	32612	18095	33671	
2587	0	32632	32416	32748	32151	33275	
2588	0	32370	31014	32902	44984	33369	
2589	0	32641	29483	32805	50558	32579	
2590	0	32960	28086	32688	45688	32016	
2591	0	33101	27990	32859	34749	32493	
2592	0	33479	29484	33000	27935	31789	
2593	0	33442	31220	32860	27495	31335	
2594	0	33407	33433	32633	26174	31611	
2595	0	32972	36803	32528	25192	31509	
2596	0	33094	38806	32536	23085	32259	
2597	0	33138	39933	32658	26947	32482	
2598	0	32906	39565	32866	28699	32132	
2599	0	32883	38907	32898	29095	32463	
2600	0	32580	37987	32873	34896	33750	
2601	0	32550	36207	32839	38388	33172	
2602	0	32583	32912	32759	36270	33169	
2603	0	32767	29907	32801	32672	33063	
2604	0	32825	29822	32843	29800	33263	
2605	0	32601	31766	32907	29463	33080	
2606	0	32444	33216	32775	32401	33915	
2607	0	32608	34381	32617	33242	33337	
2608	0	32341	31502	32537	32991	32583	
2609	0	32774	26968	32626	33395	33060	
2610	0	32905	22909	32868	33202	32890	
2611	0	32792	20939	32926	32592	32973	
2612	0	32775	21736	32696	36544	33050	
2613	0	32785	25118	32775	38351	33191	
2614	0	32836	28098	32871	36392	32751	
2615	0	32900	29059	32741	35377	33017	
2616	0	32996	28429	32531	35190	33154	
2617	0	33022	29622	32411	29459	33088	
2618	0	32813	32481	32823	25902	33575	
2619	0	32577	35271	33095	27318	32909	
2620	0	32625	38656	33328	30858	32706	
2621	0	32720	42139	33410	34926	33193	
2622	0	32731	44586	32775	37698	33113	
2623	0	32720	44306	30520	36799	33251	
2624	0	32417	41927	31009	34289	33021	
2625	0	32512	36152	32395	31576	32532	
2626	0	32848	28540	32573	30367	32421	
2627	0	33124	22777	32179	31002	33030	
2628	0	33243	21575	32831	32410	32407	
2629	0	33109	24669	33077	34415	31858	
2630	0	32924	27719	33250	34807	32381	
2631	0	32608	30791	33207	31918	32495	
2632	0	32477	35843	33025	32863	32753	
2633	0	32400	40025	32989	38427	33184	
2634	0	32320	43119	32889	42467	32837	
2635	0	32390	43162	32839	39670	32370	
2636	0	32336	42989	33125	33614	32365	
2637	0	32261	43866	33158	29429	32263	
2638	0	32318	43690	33323	28760	32422	
2639	0	32528	40848	33232	33023	32819	
2640	0	32648	35986	32688	32592	32914	
2641	0	32738	28512	32222	23534	33064	
2642	0	32943	21176	32608	17773	32896	
2643	0	33134	16081	32829	19655	32577	
2644	0	33152	14987	32908	30005	32752	
2645	0	33276	16142	32915	33471	33363	
2646	0	33369	21089	32671	30258	33443	
2647	0	33592	27479	32946	27074	33503	
2648	0	33280	32198	32825	30127	33275	
2649	0	33296	33861	33043	35323	32735	
2650	0	33058	33266	32957	43778	32450	
2651	0	32866	33000	33100	49199	32371	
2652	0	32610	35280	32411	44109	32670	
2653	0	32320	37120	31898	38553	33103	
2654	0	32174	39708	32307	32833	32833	
2655	0	32498	41435	32820	30496	32896	
2656	0	32400	41587	33029	30523	32351	
2657	0	32540	38799	32807	30912	32443	
2658	0	32453	34939	32786	30679	32077	
2659	0	32390	31486	33033	33799	32961	
2660	0	32630	30407	32845	35199	32933	
2661	0	32918	30677	32616	34127	33691	
2662	0	33089	31044	32367	32095	34183	
2663	0	32796	30005	32155	29167	34537	
2664	0	33130	27300	32356	30153	33616	
2665	0	33428	25430	32469	31911	32677	
2666	0	33286	26079	32744	33691	32485	
2667	0	33341	28482	32890	33387	32237	
2668	0	33372	31371	32615	33593	31719	
2669	0	33162	34022	32755	30994	31238	
2670	0	33122	35527	32763	25267	32852	
2671	0	32802	34439	32730	21904	33969	
2672	0	32711	34006	32664	28611	34055	
2673	0	32765	35804	32425	35245	33767	
2674	0	32619	38259	32767	36697	33473	
2675	0	32023	38839	32876	34023	34326	
2676	0	31626	38737	33023	32002	33389	
2677	0	31410	38134	33189	34493	32760	
2678	0	31630	37570	33235	39201	31531	
2679	0	32160	35089	33181	41516	30611	
2680	0	32556	32167	33050	36935	29631	
2681	0	32704	30287	33071	28329	30081	
2682	0	32935	29767	32717	25598	31573	
2683	0	32993	30693	32487	27185	32687	
2684	0	33136	31728	32415	30650	33287	
2685	0	33147	32711	32733	34090	33307	
2686	0	32962	33337	32687	37656	32793	
2687	0	32839	34671	32715	41248	32683	
2688	0	32633	34893	32775	39547	33057	
2689	0	32560	34015	32615	35995	33490	
2690	0	32632	33158	31846	36219	32953	
2691	0	32840	33836	31763	33446	33533	
2692	0	32869	34529	32118	31201	33051	
2693	0	32845	33287	32152	29258	33598	
2694	0	32760	31623	32415	31327	33163	
2695	0	32784	30943	32955	32606	32421	
2696	0	32884	30800	33117	30419	33514	
2697	0	32865	31815	32493	25618	33223	
2698	0	32792	32415	32263	27471	33037	
2699	0	32775	32787	32773	28802	33627	
2700	0	32834	31528	33058	30224	32911	
2701	0	32855	28791	33184	33368	32428	
2702	0	32914	26443	33134	36944	33023	
2703	0	32925	26063	32944	38576	32746	
2704	0	32992	25997	33059	40227	32300	
2705	0	33116	27906	32914	38905	32227	
2706	0	33036	30727	32972	34538	32647	
2707	0	32971	33600	32890	27291	32526	
2708	0	32962	37132	32773	23263	32136	
2709	0	32916	40634	32983	23149	32886	
2710	0	32611	40499	32903	24025	33149	
2711	0	32549	35346	32855	29561	33584	
2712	0	32728	28802	32919	34461	33197	
2713	0	33234	23725	32761	35286	32342	
2714	0	33448	24692	32650	34779	32486	
2715	0	33236	27456	32827	35424	32917	
2716	0	33122	30559	32559	39090	32661	
2717	0	33026	32178	32795	39154	32551	
2718	0	32992	33223	32753	35846	32917	
2719	0	32736	33891	32495	30718	33266	
2720	0	32688	32817	32583	30309	33142	
2721	0	32640	31751	32669	31303	33019	
2722	0	32745	31207	32487	31107	33027	
2723	0	32946	31386	32434	31059	33255	
2724	0	32924	32985	32327	31189	33647	
2725	0	32754	34674	32497	36243	33537	
2726	0	32796	35563	32517	40739	32881	
2727	0	32701	36433	32527	41607	33174	
2728	0	32742	37649	32556	37968	32847	
2729	0	32686	40176	32655	35455	31431	
2730	0	32250	41634	32896	25834	32303	
2731	0	32141	40754	33012	20866	33106	
2732	0	32349	37959	33195	24656	32729	
2733	0	32522	33168	33023	26380	32242	
2734	0	32848	29204	32928	31542	33572	
2735	0	33100	27604	32775	40923	32805	
2736	0	33496	28129	32683	43719	32507	
2737	0	33462	30441	32095	40571	32747	
2738	0	33068	32837	32524	31379	32443	
2739	0	32386	33680	32997	25133	32531	
2740	0	31680	34277	32133	27655	33232	
2741	0	31803	34311	32357	28911	33105	
2742	0	31993	33848	32679	29220	32249	
2743	0	32285	33254	33251	29843	33035	
2744	0	32500	33386	33137	36472	32920	
2745	0	32482	36006	33046	40092	32152	
2746	0	32510	39640	33222	37490	31316	
2747	0	32108	41918	33028	30115	32215	
2748	0	31993	42262	32400	26162	33272	
2749	0	32002	36775	31844	29120	33510	
2750	0	32137	29864	32040	35013	33718	
2751	0	32492	25867	32553	38341	33363	
2752	0	32712	26358	32949	36551	32913	
2753	0	33112	29276	33098	31027	33515	
2754	0	33404	31618	33320	26671	33337	
2755	0	33444	31170	33094	28762	32391	
2756	0	33487	28960	32832	37605	31672	
2757	0	33396	25597	33138	40955	32128	
2758	0	33728	20908	32980	34563	32762	
2759	0	33418	18889	32348	25925	33366	
2760	0	33282	20097	32696	25896	33362	
2761	0	33494	23053	32871	32587	33124	
2762	0	32937	26735	32870	33998	33069	
2763	0	32792	29979	32693	33947	33235	
2764	0	32709	32587	32546	36673	32957	
2765	0	32596	34374	32595	37292	32657	
2766	0	32430	37974	32132	36651	32592	
2767	0	32327	40417	31998	35907	32949	
2768	0	32256	41615	32464	37023	32522	
2769	0	32440	43521	33219	34603	32691	
2770	0	32392	45707	33243	29017	33078	
2771	0	32713	47004	33187	25585	32374	
2772	0	32612	45722	32757	27841	32053	
2773	0	32554	41697	32257	28219	32013	
2774	0	32787	34463	32653	28788	31701	
2775	0	33160	25923	32791	30724	32741	
2776	0	33287	19945	33195	29112	32331	
2777	0	33136	19339	33132	26992	32414	
2778	0	32821	20528	33127	28643	32979	
2779	0	33092	22721	32944	33397	33383	
2780	0	33094	25750	32975	36447	33125	
2781	0	32842	29176	32616	40062	32656	
2782	0	32587	31443	32533	39894	32775	
2783	0	32400	32919	33254	39229	32977	
2784	0	32490	36018	33511	38087	32727	
2785	0	32722	38373	33357	35783	32877	
2786	0	32832	40948	32791	36939	33437	
2787	0	32826	42307	31677	38749	32884	
2788	0	32741	41607	31635	41670	32466	
2789	0	32759	37724	31929	37321	33094	
2790	0	32686	34247	32390	35240	33407	
2791	0	32862	31973	32390	35823	32929	
2792	0	32890	30927	32839	32398	32563	
2793	0	32979	29762	32913	29639	31332	
2794	0	33102	27786	32896	23994	32620	
2795	0	33129	24999	32672	20616	32985	
2796	0	33057	22882	32741	22081	33267	
2797	0	33038	24911	32771	25200	33031	
2798	0	33005	30205	32800	27531	32549	
2799	0	32990	35847	32886	28929	33177	
2800	0	32724	38593	32962	26534	33167	
2801	0	32562	39684	33088	22116	32590	
2802	0	32583	38981	33254	24317	32765	
2803	0	32846	35376	33028	32495	33454	
2804	0	32747	30775	33223	38813	33444	
2805	0	32620	28069	32825	39071	33383	
2806	0	32717	26835	31361	37404	32846	
2807	0	32801	26991	31627	38880	32293	
2808	0	32839	28655	32349	39099	32511	
2809	0	32868	32073	32759	36008	32818	
2810	0	32752	36577	33042	31278	33366	
2811	0	32632	41819	33307	30855	33415	
2812	0	32262	46599	33435	33892	33171	
2813	0	32240	48075	33616	37227	33132	
2814	0	32220	45293	33711	41959	32170	
2815	0	32482	38860	33536	44668	32557	
2816	0	32680	32263	33336	44455	32731	
2817	0	32916	27108	33206	39469	32412	
2818	0	33055	25701	32522	32884	32493	
2819	0	33116	27457	31889	25228	32359	
2820	0	33266	30736	32249	22163	33516	
2821	0	33090	32834	31815	26357	33523	
2822	0	32744	33059	31318	28493	33251	
2823	0	32699	32880	31486	23733	33133	
2824	0	32797	32737	32169	25629	32863	
2825	0	32844	31635	32722	31172	32605	
2826	0	32676	27955	32793	33433	32914	
2827	0	33029	22855	32452	36439	32498	
2828	0	33040	18861	32329	40028	31850	
2829	0	33379	21394	32641	39909	32361	
2830	0	33338	27215	33000	34464	32333	
2831	0	33051	32212	33014	26843	32930	
2832	0	32820	36047	33209	24358	32653	
2833	0	32908	39721	33152	26404	32982	
2834	0	32876	41636	33078	29816	32813	
2835	0	32498	40967	33112	38544	33412	
2836	0	32170	38259	33005	44374	33313	
2837	0	32176	33859	33044	39058	33607	
2838	0	32263	30663	33034	32454	32293	
2839	0	32708	30606	32804	28678	32114	
2840	0	33001	32496	32805	29815	32114	
2841	0	33108	31426	32621	33563	32791	
2842	0	33241	29990	32825	37644	32755	
2843	0	33170	30315	32941	35535	32916	
2844	0	32772	31101	32807	29437	32869	
2845	0	32532	30067	32893	27134	33234	
2846	0	32289	28117	32711	28177	32792	
2847	0	32392	26501	32850	36871	32991	
2848	0	32647	28182	32757	41294	33577	
2849	0	32626	32843	32722	40471	32611	
2850	0	32513	36576	32671	36210	32587	
2851	0	32372	39137	32717	31081	33400	
2852	0	32693	39409	32827	32425	33021	
2853	0	32960	38859	32963	29683	32476	
2854	0	33056	35986	32784	23957	32571	
2855	0	33016	32065	32251	22318	32879	
2856	0	32756	29423	31560	21723	32948	
2857	0	32544	27775	32131	21800	33333	
2858	0	32041	27398	32868	26255	33985	
2859	0	32168	28288	33070	34234	32986	
2860	0	32650	29249	33061	39853	31892	
2861	0	33259	31928	33382	40071	32194	
2862	0	33885	35053	33259	32455	32609	
2863	0	33922	39487	32670	30670	33030	
2864	0	33836	43643	32411	36497	31716	
2865	0	33320	45298	32221	46749	32317	
2866	0	32717	43041	32094	49505	33251	
2867	0	32502	37700	32620	44777	33107	
2868	0	32421	31842	33202	38354	32722	
2869	0	32964	26096	33529	27020	32892	
2870	0	33272	23751	33642	20174	33234	
2871	0	33194	23066	32775	23738	33190	
2872	0	33184	21265	32842	29651	33068	
2873	0	33058	20154	33124	31297	33234	
2874	0	32880	22224	32740	30407	33063	
2875	0	32836	26430	31824	29213	32931	
2876	0	32554	30693	30596	33413	33000	
2877	0	32226	33571	30469	36319	32279	
2878	0	32188	34480	30131	37511	32682	
2879	0	32340	35566	31721	35304	33142	
2880	0	32417	36935	32886	29590	32744	
2881	0	32372	37000	33327	25449	32609	
2882	0	32407	36537	33492	27055	32861	
2883	0	32448	37712	33706	34247	32583	
2884	0	32368	38721	33836	42112	31901	
2885	0	32165	39495	33779	46824	32990	
2886	0	32198	39391	33499	45121	32826	
2887	0	32552	40618	33385	37158	33486	
2888	0	32679	41095	33177	24150	33387	
2889	0	32730	41080	33229	18560	32451	
2890	0	32656	41021	33223	19904	32447	
2891	0	32662	39696	33195	23418	32167	
2892	0	32677	38724	33174	32240	33048	
2893	0	32581	35119	32927	36108	32759	
2894	0	32718	28730	33157	35680	31817	
2895	0	32701	21511	33230	34328	33274	
2896	0	32940	17500	32883	33666	33061	
2897	0	33158	19401	33049	36270	32084	
2898	0	33116	24240	33010	34992	32098	
2899	0	33178	29975	32479	30272	31741	
2900	0	33152	35567	32417	31205	31802	
2901	0	33009	35118	32727	31685	32596	
2902	0	32918	32245	32873	34129	33769	
2903	0	33012	29548	32775	36776	34085	
2904	0	33069	29103	32503	36267	34377	
2905	0	33068	31513	32487	38628	34226	
2906	0	33008	34570	31938	35649	32792	
2907	0	32882	36653	31567	28155	32601	
2908	0	32976	36678	32087	22415	33160	
2909	0	32992	32486	32215	21508	32306	
2910	0	33095	27628	32363	26387	32117	
2911	0	32877	24320	32304	31109	33264	
2912	0	32520	20621	32827	35718	32938	
2913	0	32616	18924	32967	40517	32694	
2914	0	32988	21471	33087	37319	33422	
2915	0	33315	26905	33040	32927	33155	
2916	0	33232	32941	33044	33313	32823	
2917	0	32857	40130	33007	34414	32198	
2918	0	32364	45552	33045	37552	32282	
2919	0	31882	48378	33164	39700	32020	
2920	0	31866	48903	33164	38467	31844	
2921	0	31912	46377	33120	42035	32645	
2922	0	32206	41419	32598	44551	32891	
2923	0	32646	34023	32714	38234	32585	
2924	0	32944	28666	33052	30344	33073	
2925	0	33054	26620	33216	21986	33280	
2926	0	33385	27685	33317	18292	33343	
2927	0	33011	29639	33767	20332	33607	
2928	0	32755	29703	33808	25519	33949	
2929	0	32791	30183	33218	29045	32946	
2930	0	32887	31642	31887	30931	33246	
2931	0	32928	32647	30418	30947	32939	
2932	0	32928	34153	30071	30566	32935	
2933	0	32766	35997	31673	31819	32455	
2934	0	32833	36105	33045	35117	32836	
2935	0	32819	35259	33407	37383	32391	
2936	0	32535	32929	33069	36841	32435	
2937	0	32676	30016	32250	34082	32313	
2938	0	32470	29605	32775	33769	32891	
2939	0	32432	31191	33223	37637	32997	
2940	0	32442	32379	32812	42404	32085	
2941	0	32452	33202	32414	44487	32025	
2942	0	32486	33085	31888	45087	31465	
2943	0	32352	33345	32615	40064	31815	
2944	0	32591	34137	33179	30611	31717	
2945	0	32845	34505	33472	26061	32315	
2946	0	33502	33639	32698	21307	32751	
2947	0	33689	33206	31765	18695	32805	
2948	0	33386	33758	32199	17760	33159	
2949	0	33113	35923	32351	20282	33355	
2950	0	32835	35999	32952	28100	33226	
2951	0	32656	36109	33264	38500	33475	
2952	0	32813	34610	33534	44267	32713	
2953	0	32797	32082	33511	43507	31492	
2954	0	32770	28999	33180	42021	32445	
2955	0	32809	25548	33472	35776	33148	
2956	0	32857	22688	33360	25063	33124	
2957	0	33047	22969	32790	19581	33059	
2958	0	32852	25730	32187	22011	33099	
2959	0	32781	28917	32069	25254	33741	
2960	0	32713	32256	32426	31291	33755	
2961	0	32192	36002	32761	37191	33855	
2962	0	32032	40536	33310	41682	33511	
2963	0	31712	42838	33638	40388	31687	
2964	0	31704	42850	33467	37840	31677	
2965	0	31721	41661	33242	36850	32390	
2966	0	31788	39623	32310	39225	33012	
2967	0	32204	35328	31131	39856	33051	
2968	0	33146	31374	31747	40025	32637	
2969	0	33860	27432	32035	34209	32156	
2970	0	34128	24066	32454	25316	33136	
2971	0	34227	23503	32744	21147	33602	
2972	0	34066	25579	32678	23858	33303	
2973	0	34105	27359	32978	29278	33251	
2974	0	33722	27761	33037	28759	33464	
2975	0	33312	27252	32820	26135	33872	
2976	0	33050	26706	33078	28400	33417	
2977	0	32835	26373	33122	33175	32586	
2978	0	32693	26139	33069	36711	31378	
2979	0	32421	27187	32923	37200	30343	
2980	0	32219	29293	32959	37951	31818	
2981	0	32223	32096	32796	34951	32289	
2982	0	32198	35223	32906	33399	32061	
2983	0	32273	38708	32983	33333	33120	
2984	0	32092	42584	32971	32122	33141	
2985	0	31949	44723	32966	31813	33287	
2986	0	31788	46965	32984	33317	34119	
2987	0	31847	50292	33037	36152	34152	
2988	0	32057	52093	33020	39737	34124	
2989	0	32258	49814	33137	39763	33902	
2990	0	32417	41737	32967	40357	33287	
2991	0	32672	29922	32912	35096	33140	
2992	0	32898	20980	32770	30302	33043	
2993	0	32967	19078	32941	28755	32915	
2994	0	33124	21702	32968	33127	33126	
2995	0	33573	23179	32564	34960	32839	
2996	0	33412	25699	32437	36709	32587	
2997	0	33250	27826	32181	34591	32607	
2998	0	33468	28073	32097	28553	32521	
2999	0	33638	28910	31942	24352	32325	
3000	0	33497	31237	31898	23693	32535	
3001	0	32992	33395	32229	22693	32489	
3002	0	33064	34135	32071	23247	32283	
3003	0	33099	34213	32749	30749	32860	
3004	0	32586	33495	33178	38357	32936	
3005	0	32536	31851	33184	41159	33257	
3006	0	32342	31089	33058	40653	33215	
3007	0	32464	31543	32818	36551	32387	
3008	0	32419	32545	32775	32021	32186	
3009	0	32188	32839	32727	27139	32910	
3010	0	32168	33923	32763	28033	32847	
3011	0	32209	35823	32655	30463	33799	
3012	0	32456	38407	32626	34296	33972	
3013	0	32892	41597	32865	40410	32002	
3014	0	32816	45136	33349	42693	31162	
3015	0	32436	46936	33402	36260	31976	
3016	0	32545	42705	32844	26577	32768	
3017	0	32330	34631	31892	25507	33028	
3018	0	32836	27020	31697	29575	32708	
3019	0	33225	23035	32327	33285	32704	
3020	0	32878	21657	33003	30630	32924	
3021	0	32675	22796	33015	29885	33307	
3022	0	33309	24294	32749	34270	33953	
3023	0	33664	27043	32620	39683	33671	
3024	0	33696	29426	32550	43364	33452	
3025	0	33494	32125	32831	43226	32693	
3026	0	33274	34949	32923	35792	32351	
3027	0	33124	35112	33064	24876	31561	
3028	0	32833	31480	33061	20071	31376	
3029	0	32739	26725	32947	23420	32490	
3030	0	32796	23823	32985	28592	32405	
3031	0	32815	25520	32949	32159	32805	
3032	0	33074	30097	32831	32383	32930	
3033	0	32992	36359	32766	31275	33061	
3034	0	32322	40391	32634	30245	32959	
3035	0	31901	41826	32740	32921	33071	
3036	0	31826	41229	33031	33527	33095	
3037	0	31976	39293	33197	28464	32827	
3038	0	32532	36681	32917	23251	32650	
3039	0	33082	34256	32386	25927	33166	
3040	0	33273	30632	31881	34746	33236	
3041	0	33330	26787	32065	43200	33500	
3042	0	33035	23677	32751	44914	33127	
3043	0	33168	23054	33090	42006	32922	
3044	0	33013	25317	32958	34443	33479	
3045	0	32745	30167	32698	30256	33427	
3046	0	32514	36082	32889	31925	33627	
3047	0	32419	39898	32893	36445	33410	
3048	0	32462	41001	32888	39879	32576	
3049	0	32606	39265	32896	37345	32207	
3050	0	32837	34676	32837	33013	32205	
3051	0	33121	31503	32631	30765	32263	
3052	0	33368	31353	32066	35013	32233	
3053	0	33269	32293	32402	39372	32103	
3054	0	32931	32100	32809	39977	33046	
3055	0	32848	31175	32953	39389	32685	
3056	0	32718	31797	33076	33799	32385	
3057	0	32088	33904	32263	18913	32989	
3058	0	31928	35387	31760	8389	32669	
3059	0	32132	35943	32546	11535	32689	
3060	0	32256	37080	32845	21920	33287	
3061	0	32289	38400	33088	32339	33467	
3062	0	32470	40546	33201	40455	33287	
3063	0	32640	41175	33197	45437	33049	
3064	0	32768	40911	33131	43422	32215	
3065	0	32711	38393	32886	36551	32741	
3066	0	32888	33645	32691	24672	32853	
3067	0	32744	26018	32636	23508	32994	
3068	0	32821	17552	32250	31944	32320	
3069	0	33296	13118	32192	41705	32274	
3070	0	33378	12897	32263	52104	32096	
3071	0	33126	17939	32562	54363	32009	
3072	0	32920	25495	32656	44066	32785	
3073	0	33120	32500	32876	25272	33627	
3074	0	33210	37752	32809	14308	33589	
3075	0	33145	40487	32914	16207	34387	
3076	0	33008	41382	32965	24361	33197	
3077	0	32712	42527	33122	28865	31959	
3078	0	32592	44560	33103	29528	32773	
3079	0	32322	45716	33099	31949	32064	
3080	0	32334	43223	32917	34852	32137	
3081	0	32292	36660	32875	34616	32239	
3082	0	32487	31024	32700	37696	32014	
3083	0	32420	27219	32903	40872	32313	
3084	0	32692	25277	32845	43314	32903	
3085	0	32641	24363	32947	40954	33699	
3086	0	32677	22911	32980	35079	33238	
3087	0	33024	21296	32671	28626	32616	
3088	0	33410	22103	32717	24381	32881	
3089	0	33347	26059	32577	23831	32320	
3090	0	33384	31193	32607	20895	32112	
3091	0	33178	36176	32673	25064	32545	
3092	0	32939	39566	32873	33073	32911	
3093	0	32944	39751	33080	35821	32981	
3094	0	32386	36773	32979	39724	33171	
3095	0	31908	34134	33193	44151	33309	
3096	0	31884	31315	32871	46206	33149	
3097	0	32392	28186	32493	37478	32652	
3098	0	33042	27905	32620	31159	32965	
3099	0	33564	30227	33158	27967	32839	
3100	0	33514	33131	32841	24793	33395	
3101	0	32837	37456	32084	26411	32690	
3102	0	32228	41561	31346	28374	32111	
3103	0	32289	43858	31357	32006	32233	
3104	0	32517	44306	31835	34576	32221	
3105	0	32495	42370	31991	39694	32239	
3106	0	32692	37819	32327	37370	32717	
3107	0	32960	32631	32502	30972	32880	
3108	0	33136	27064	32612	30971	32621	
3109	0	32946	25105	33016	28478	32764	
3110	0	32722	24983	33473	25033	32787	
3111	0	32638	25830	33488	29058	32715	
3112	0	32522	28807	33539	33681	32521	
3113	0	32828	30468	33307	31497	32835	
3114	0	33162	29753	33235	29319	33536	
3115	0	33522	28567	33083	30290	33494	
3116	0	33842	29365	32394	29697	33601	
3117	0	33588	30415	31771	29994	33885	
3118	0	33117	31871	32129	32775	33723	
3119	0	32368	34260	32630	35813	33970	
3120	0	32306	35320	33287	38689	33439	
3121	0	32281	35255	33689	41159	32263	
3122	0	32519	34458	34183	41044	31716	
3123	0	32354	34563	33142	38289	31982	
3124	0	31978	35178	31380	33959	32493	
3125	0	31985	35207	31957	30823	32626	
3126	0	32370	37640	33287	33990	32985	
3127	0	32582	40017	32707	36474	32804	
3128	0	32538	41674	31883	38715	33052	
3129	0	32706	42371	32600	38842	32414	
3130	0	32786	42832	32464	33023	33109	
3131	0	32784	41479	32301	28406	33029	
3132	0	32633	38340	32499	28004	32948	
3133	0	32681	31959	32931	27397	32703	
3134	0	33035	25392	33146	24482	32558	
3135	0	33396	22156	33215	23516	31895	
3136	0	33130	20650	33207	25159	32506	
3137	0	33088	22134	32935	27705	32768	
3138	0	32984	26013	32939	36541	33773	
3139	0	32866	27674	32827	42592	33121	
3140	0	32788	26317	32856	44646	32873	
3141	0	32730	24235	32964	43079	32490	
3142	0	32874	24387	32616	34670	32933	
3143	0	33046	27169	32576	27109	32799	
3144	0	33060	30566	32824	22501	32568	
3145	0	32801	34198	32855	21982	32751	
3146	0	32672	37164	32775	25208	33382	
3147	0	32828	39046	32955	29856	33475	
3148	0	33097	39938	32937	35136	32843	
3149	0	33154	40485	32893	38031	32647	
3150	0	33001	38960	32877	40070	32806	
3151	0	32794	35426	32845	41318	32147	
3152	0	32528	32167	32755	40391	31904	
3153	0	32348	29691	32931	36816	32176	
3154	0	32412	28519	32865	33721	32236	
3155	0	32855	30407	32694	35426	32319	
3156	0	32753	36157	32656	39062	31687	
3157	0	32538	39467	32186	37456	31096	
3158	0	32644	38893	32463	31042	33274	
3159	0	32752	36280	32674	22866	33972	
3160	0	33048	31768	32620	11188	32672	
3161	0	33144	26812	32458	8224	31372	
3162	0	33122	22658	32741	20712	32640	
3163	0	32861	21069	32925	35602	32581	
3164	0	32692	24227	32723	45810	32786	
3165	0	32809	28893	32967	47722	32669	
3166	0	32688	31969	32989	44022	32997	
3167	0	32621	33884	32775	34761	34021	
3168	0	32332	33263	33211	31051	33735	
3169	0	32429	33853	33475	33759	33184	
3170	0	32843	35957	33863	34098	33529	
