# OpenSignals Text File Format
# {"00:07:80:3B:46:63": {"sensor": ["EMG", "EMG", "EMG", "EMG", "EMG"], "device name": "00:07:80:3B:46:63", "column": ["nSeq", "DI", "CH1", "CH2", "CH3", "CH4", "CH5"], "sync interval": 2, "time": "13:2:29.461", "comments": "", "device connection": "BTH00:07:80:3B:46:63", "channels": [1, 2, 3, 4, 5], "date": "2017-4-28", "mode": 0, "digital IO": [0, 1], "firmware version": 770, "device": "biosignalsplux", "position": 0, "sampling rate": 1000, "label": ["CH1", "CH2", "CH3", "CH4", "CH5"], "resolution": [16, 16, 16, 16, 16], "special": [{}, {}, {}, {}, {}]}}
# EndOfHeader
0	0	32740	33123	32711	32681	32927	
1	0	32725	33231	32627	31977	32697	
2	0	32781	33223	32635	31422	32611	
3	0	32796	33195	32775	32183	32657	
4	0	32743	32791	32704	33142	32640	
5	0	32809	32579	32698	32425	32763	
6	0	32813	32622	32805	33386	32617	
7	0	32839	33223	32643	34113	32786	
8	0	32827	33818	32647	35399	32998	
9	0	32818	34055	32735	35043	33031	
10	0	32866	33991	32767	33106	32921	
11	0	32829	33703	32725	32194	32959	
12	0	32764	33149	32691	31207	33241	
13	0	32820	32677	32609	30954	33683	
14	0	32864	32173	32805	31155	33855	
15	0	32800	31378	32653	31910	33591	
16	0	32751	31021	32742	32609	33412	
17	0	32802	31007	32571	33039	33493	
18	0	32813	31792	32669	33879	33061	
19	0	32857	32664	32807	35613	32130	
20	0	32875	33195	32551	35990	32215	
21	0	32836	33494	32793	34887	32121	
22	0	32716	33927	32723	32511	30343	
23	0	32708	34131	32789	29819	29395	
24	0	32698	33735	32627	29895	30886	
25	0	32863	33147	32796	31650	32487	
26	0	32676	32431	32747	33336	33773	
27	0	32676	31835	32725	34087	33639	
28	0	32750	31431	32699	33583	32568	
29	0	32731	31439	32557	32775	32921	
30	0	32635	31777	32740	32583	32807	
31	0	32686	32037	32775	32487	33234	
32	0	32816	32591	32763	32479	33648	
33	0	32786	33615	32789	32049	33234	
34	0	32766	34335	32602	32253	32824	
35	0	32865	34311	32603	31495	33475	
36	0	32946	33349	32737	31583	33449	
37	0	32992	32183	32702	31931	32917	
38	0	32903	31301	32614	32199	33304	
39	0	32840	31015	32831	32743	33381	
40	0	32797	30993	32762	33339	33227	
41	0	32738	30937	32607	33558	32615	
42	0	32684	31440	32662	34073	32735	
43	0	32770	32283	32793	33799	32933	
44	0	32822	33997	32775	33119	33060	
45	0	32716	35571	32799	31890	33141	
46	0	32744	35611	32669	31739	32963	
47	0	32685	33927	32647	32524	33011	
48	0	32661	31857	32739	32982	33708	
49	0	32797	30183	32775	33944	34471	
50	0	32864	29863	32767	33217	35351	
51	0	32981	30377	32687	33383	35329	
52	0	33001	31167	32623	33217	32765	
53	0	32857	32041	32766	32912	32263	
54	0	32771	32839	32669	32163	30989	
55	0	32736	33334	32795	31462	29233	
56	0	32650	33719	32803	31603	29213	
57	0	32654	34223	32727	32221	30303	
58	0	32799	34170	32571	33210	32163	
59	0	32822	33906	32655	34241	33262	
60	0	32819	33346	32734	34338	33746	
61	0	32685	32739	32743	34619	33018	
62	0	32803	32357	32691	33581	33014	
63	0	32959	32553	32787	33150	32809	
64	0	32841	33155	32590	32538	32135	
65	0	32763	33129	32775	31965	32647	
66	0	32789	32902	32743	31879	33328	
67	0	32851	32756	32775	32133	33287	
68	0	32944	32655	32604	32263	33457	
69	0	32797	32509	32669	32263	33239	
70	0	32774	31735	32704	32640	32930	
71	0	32740	31089	32825	32898	32825	
72	0	32640	30791	32588	33799	32993	
73	0	32677	30971	32750	33304	32978	
74	0	32747	31891	32695	32231	33056	
75	0	32736	32857	32764	31989	33427	
76	0	32839	33463	32589	32827	33333	
77	0	32706	34127	32654	33092	33250	
78	0	32706	34515	32762	33402	33328	
79	0	32583	34555	32721	33614	32979	
80	0	32667	34223	32775	33087	32839	
81	0	32835	33817	32687	32374	33035	
82	0	32758	33231	32610	32031	32659	
83	0	32760	32757	32741	31893	32770	
84	0	32753	32903	32722	32048	33007	
85	0	32732	33017	32787	32557	32770	
86	0	32696	32695	32705	32475	32703	
87	0	32736	32511	32579	31904	32993	
88	0	32758	32475	32583	31008	33097	
89	0	32838	32541	32827	31930	32765	
90	0	32845	32683	32743	32247	32631	
91	0	32801	32401	32765	32239	32889	
92	0	32809	31751	32645	34190	32967	
93	0	32807	31173	32715	36699	33053	
94	0	32884	30881	32771	37629	33321	
95	0	32934	31450	32606	35613	33671	
96	0	32896	31847	32635	32230	34179	
97	0	32786	31937	32813	31558	34687	
98	0	32771	31827	32731	30544	34135	
99	0	32892	31815	32717	29959	33471	
100	0	32794	31716	32543	31684	32873	
101	0	32726	32391	32662	32521	30072	
102	0	32794	33185	32775	32450	29845	
103	0	32866	33652	32723	32077	30179	
104	0	32902	33823	32775	32549	30807	
105	0	32809	33095	32629	33229	30992	
106	0	32807	32047	32617	33623	31751	
107	0	32860	31408	32775	33843	31703	
108	0	32801	31667	32717	33799	33389	
109	0	32669	32207	32697	33182	34475	
110	0	32602	32759	32723	33665	34291	
111	0	32528	33755	32755	33247	34453	
112	0	32658	34048	32606	32669	34792	
113	0	32769	34363	32632	32841	35015	
114	0	32812	34351	32807	33111	34903	
115	0	32936	33710	32742	33666	34091	
116	0	32816	33173	32678	33159	33705	
117	0	32750	32775	32755	32013	33200	
118	0	32813	32351	32834	31318	32896	
119	0	32775	31961	32657	30919	31487	
120	0	32827	31826	32593	31062	30171	
121	0	32804	32295	32631	31007	30203	
122	0	32731	32999	32834	31456	30543	
123	0	32775	33431	32775	31408	30692	
124	0	32749	34297	32717	31661	32183	
125	0	32587	34330	32739	32487	32863	
126	0	32592	34123	32739	32743	33692	
127	0	32694	33039	32758	34333	33545	
128	0	32775	32159	32711	36271	33926	
129	0	32802	31296	32775	35059	32000	
130	0	32775	31239	32675	33219	32617	
131	0	32903	32175	32627	33547	32635	
132	0	32927	33309	32635	34303	32601	
133	0	32873	33959	32733	33814	33479	
134	0	32775	34307	32763	34387	33837	
135	0	32775	33473	32718	35103	34330	
136	0	32788	32471	32733	33068	34751	
137	0	32940	30847	32762	31593	33927	
138	0	32868	30338	32736	30973	33238	
139	0	32805	30438	32689	29941	30864	
140	0	32816	30406	32627	30515	31441	
141	0	32785	30610	32683	31751	32455	
142	0	32744	30967	32655	32059	32031	
143	0	32818	30893	32711	32449	31073	
144	0	32837	31379	32683	32831	32147	
145	0	32947	32383	32692	33399	33601	
146	0	32748	32839	32711	32862	33978	
147	0	32647	33231	32753	32315	34025	
148	0	32568	33107	32717	32034	34243	
149	0	32546	33359	32658	31745	34479	
150	0	32651	33922	32687	31915	34051	
151	0	32632	34969	32694	33759	32865	
152	0	32516	35649	32748	34775	32427	
153	0	32581	36306	32775	36134	33029	
154	0	32648	36442	32803	33975	32917	
155	0	32763	35231	32751	32807	32233	
156	0	32768	33747	32737	31051	34171	
157	0	32819	32227	32740	30501	34715	
158	0	32976	31591	32750	32339	35859	
159	0	33034	31357	32774	33863	33953	
160	0	32927	30347	32775	34468	30078	
161	0	32912	29159	32812	35051	29175	
162	0	32903	29046	32746	32671	30955	
163	0	32846	29905	32658	31187	31053	
164	0	32786	31175	32723	30062	30979	
165	0	32724	32487	32722	30535	33208	
166	0	32740	33283	32677	32263	37099	
167	0	32737	33464	32750	34196	38983	
168	0	32808	32572	32723	34631	39871	
169	0	32795	31852	32711	35003	41062	
170	0	32682	31718	32723	33079	40114	
171	0	32796	31651	32768	31626	34919	
172	0	32616	32341	32749	32183	32874	
173	0	32548	33251	32793	32607	29627	
174	0	32487	34301	32835	33837	26370	
175	0	32475	34861	32811	33378	24404	
176	0	32579	34207	32739	32351	21563	
177	0	32741	33412	32805	32490	23267	
178	0	32747	32387	32775	32126	28324	
179	0	32745	31790	32793	31943	33415	
180	0	32864	32380	32689	31463	33933	
181	0	33119	33331	32623	31488	31041	
182	0	32996	33903	32614	32727	25726	
183	0	32893	33605	32625	33780	30616	
184	0	32766	33024	32687	33403	34463	
185	0	32774	32480	32747	32962	37140	
186	0	32809	32374	32755	33309	42946	
187	0	32908	32319	32809	33522	44836	
188	0	32853	32626	32795	33344	40614	
189	0	32820	32958	32760	33107	32702	
190	0	32732	33136	32764	32451	24536	
191	0	32672	33235	32775	32162	20727	
192	0	32594	32793	32755	31920	20728	
193	0	32694	32644	32669	32743	22361	
194	0	32813	32949	32667	32978	27187	
195	0	32852	33018	32711	33120	30471	
196	0	32842	33870	32733	33379	33573	
197	0	32801	34637	32738	33715	36205	
198	0	32867	34703	32801	33570	36646	
199	0	32805	34069	32793	32931	35610	
200	0	32762	32883	32711	30381	35904	
201	0	32711	31303	32626	30163	35981	
202	0	32704	30215	32551	32438	35143	
203	0	32899	30070	32595	35832	35385	
204	0	32832	30171	32685	36399	37168	
205	0	32826	30898	32765	34875	38446	
206	0	32938	31449	32775	32562	39271	
207	0	32960	32199	32809	31490	37811	
208	0	32930	33318	32747	32618	36198	
209	0	32821	33590	32699	31822	34707	
210	0	32866	33207	32694	29703	33671	
211	0	32792	32009	32736	29857	32301	
212	0	32725	31393	32719	31042	29907	
213	0	32734	31267	32727	32601	30523	
214	0	32734	31483	32775	34727	29233	
215	0	32688	32116	32765	34546	29019	
216	0	32728	32959	32551	34311	30518	
217	0	32694	33430	32607	31536	32556	
218	0	32648	33894	32588	29124	34075	
219	0	32711	34139	32719	29537	34093	
220	0	32617	33622	32748	31883	31687	
221	0	32600	32799	32801	33714	30557	
222	0	32844	32671	32730	35719	30808	
223	0	32832	33387	32698	37348	33301	
224	0	32804	34113	32738	37450	35266	
225	0	32836	34199	32720	36827	36359	
226	0	32838	32710	32775	35087	38486	
227	0	32873	31664	32775	31801	38038	
228	0	32879	30815	32834	30727	32144	
229	0	32888	31149	32664	30473	25659	
230	0	32896	32228	32575	29440	24893	
231	0	32869	32903	32635	30279	24932	
232	0	32822	33027	32745	31891	29048	
233	0	32760	32821	32737	33477	33110	
234	0	32675	32922	32733	34474	34273	
235	0	32554	33171	32775	33991	32614	
236	0	32448	33415	32707	33014	31751	
237	0	32504	33071	32690	30537	34700	
238	0	32644	32601	32774	28805	34759	
239	0	32659	31919	32819	30530	31922	
240	0	32697	31976	32769	33440	35620	
241	0	32674	32195	32805	36135	32478	
242	0	32757	32832	32772	37221	32939	
243	0	32780	34178	32664	35975	34809	
244	0	32837	34576	32607	32707	33114	
245	0	32849	33819	32637	32231	33312	
246	0	32905	32389	32711	32041	35225	
247	0	32996	31221	32667	31090	33937	
248	0	33144	31559	32743	30690	32151	
249	0	32997	32101	32731	30888	35143	
250	0	32928	32293	32721	32709	36243	
251	0	32809	32301	32595	32559	37224	
252	0	32645	31643	32752	31482	36212	
253	0	32770	31435	32703	32541	32087	
254	0	32744	30951	32688	32286	30288	
255	0	32684	31047	32707	31851	29101	
256	0	32726	31807	32713	32679	30656	
257	0	32775	33197	32688	33259	32045	
258	0	32820	35275	32622	34333	30006	
259	0	32754	36579	32771	34802	29181	
260	0	32682	37315	32753	34651	31987	
261	0	32707	37363	32760	33523	34642	
262	0	32640	35271	32773	32371	33727	
263	0	32648	32615	32759	31629	33351	
264	0	32705	30663	32764	30381	31443	
265	0	32722	29258	32749	29562	29206	
266	0	32862	29355	32759	30914	29490	
267	0	32888	31055	32612	34570	33182	
268	0	32890	33140	32606	38912	33757	
269	0	32908	34742	32727	40715	32886	
270	0	32915	34947	32787	40223	33209	
271	0	32808	33799	32706	36598	32319	
272	0	32892	31881	32772	32487	31120	
273	0	32840	30201	32737	29139	31419	
274	0	32918	29553	32722	26271	30765	
275	0	32896	29553	32587	24995	29342	
276	0	32936	30387	32599	26842	31623	
277	0	33103	31032	32758	29965	34739	
278	0	33076	32325	32722	33223	36438	
279	0	33008	33415	32738	34795	35399	
280	0	32704	33399	32732	34281	34149	
281	0	32479	34217	32743	32215	33590	
282	0	32833	34674	32757	32260	33007	
283	0	32825	34119	32745	33188	34695	
284	0	32765	32719	32610	32865	36909	
285	0	32832	32069	32611	31807	39343	
286	0	32637	32198	32800	33799	38152	
287	0	32627	32211	32727	35889	36276	
288	0	32688	32107	32734	37465	34810	
289	0	32909	31975	32720	35698	34943	
290	0	32863	32574	32739	33845	33093	
291	0	32716	33578	32766	29331	31209	
292	0	32396	34047	32770	27208	30395	
293	0	32368	33970	32751	28391	34242	
294	0	32632	32920	32775	32239	33065	
295	0	32906	30312	32775	36609	29492	
296	0	32962	28799	32831	37342	27356	
297	0	32774	28900	32747	33479	28113	
298	0	32656	29899	32694	29523	29621	
299	0	32760	30650	32631	26688	31861	
300	0	32804	30905	32626	27749	32961	
301	0	32880	30640	32607	31266	32377	
302	0	32993	31588	32775	35504	36771	
303	0	32933	32920	32764	38151	37223	
304	0	32804	34527	32789	40289	35441	
305	0	32659	35563	32761	39558	32765	
306	0	32872	36891	32737	36689	30020	
307	0	32840	38234	32833	32947	27532	
308	0	32596	37349	32775	31409	27122	
309	0	32616	35423	32775	30529	32621	
310	0	32653	32744	32625	29243	34156	
311	0	32649	31670	32563	29698	31160	
312	0	32772	31880	32531	30122	32887	
313	0	32927	33016	32615	29850	35539	
314	0	33004	33883	32775	29241	33879	
315	0	33008	34050	32768	28740	35051	
316	0	32906	34047	32758	30975	37082	
317	0	32666	34246	32789	31828	30205	
318	0	32572	33350	32753	32629	23173	
319	0	32450	30626	32674	34703	32670	
320	0	32390	29229	32696	39877	42026	
321	0	32577	29810	32641	40899	42235	
322	0	32664	30769	32765	37959	42098	
323	0	32793	31777	32744	33458	39583	
324	0	32864	33348	32746	29902	34125	
325	0	32964	35560	32744	27611	21713	
326	0	33060	35847	32739	29514	17421	
327	0	33068	34461	32710	33287	28064	
328	0	32980	31857	32616	37040	27779	
329	0	33016	29283	32613	38383	31253	
330	0	32963	28803	32583	37872	34595	
331	0	32933	29897	32792	34608	31568	
332	0	32857	31879	32801	32205	30727	
333	0	32873	32926	32820	29378	34657	
334	0	32799	33383	32803	27851	34775	
335	0	32697	33458	32775	27719	35013	
336	0	32765	33557	32755	28786	38642	
337	0	32741	33978	32709	29703	36227	
338	0	32948	33187	32747	30734	29028	
339	0	33004	32605	32739	32802	26271	
340	0	33016	33174	32728	33519	30919	
341	0	32976	34107	32762	32390	35368	
342	0	32928	35303	32693	31323	39786	
343	0	32876	34856	32595	30809	42863	
344	0	32733	33251	32539	32203	41522	
345	0	32622	30778	32773	34181	32616	
346	0	32524	28578	32731	35149	24095	
347	0	32600	27617	32775	33670	25190	
348	0	32800	27750	32869	31408	29583	
349	0	32928	29457	32681	30300	33201	
350	0	32929	31490	32571	27470	34142	
351	0	32825	34342	32598	30215	34152	
352	0	32736	35808	32775	37159	35256	
353	0	32647	35495	32733	41662	38781	
354	0	32563	34272	32703	43970	37920	
355	0	32608	33368	32757	41890	40567	
356	0	32727	33091	32720	37242	39233	
357	0	32720	33415	32603	31751	35792	
358	0	32706	33357	32786	29362	33024	
359	0	32706	32592	32744	27600	18325	
360	0	32718	32610	32754	26785	14827	
361	0	32462	32638	32723	26567	21545	
362	0	32344	32017	32827	27682	24410	
363	0	32452	31235	32789	30279	29218	
364	0	32670	31120	32583	33227	38943	
365	0	32775	32285	32613	36454	40809	
366	0	32675	34043	32792	38312	43515	
367	0	32685	35648	32747	39404	40903	
368	0	32716	36846	32738	41963	36807	
369	0	32748	37608	32711	38971	28052	
370	0	32742	37554	32822	32318	25378	
371	0	33076	35968	32728	27194	23940	
372	0	32992	32449	32600	24285	19567	
373	0	32982	28745	32562	22664	30599	
374	0	33076	26584	32807	24544	44870	
375	0	33052	26683	32722	29179	51173	
376	0	32960	28231	32614	34232	41074	
377	0	32872	30908	32775	36870	28450	
378	0	32890	32966	32675	36818	35362	
379	0	32846	34909	32629	35531	42274	
380	0	32725	35083	32625	34267	42599	
381	0	32680	34885	32752	32386	34454	
382	0	32821	33714	32831	31649	34631	
383	0	32634	32175	32717	31906	32225	
384	0	32608	31010	32756	33894	18141	
385	0	32804	30798	32805	34751	18226	
386	0	32614	31819	32798	33870	15630	
387	0	32538	32627	32667	33491	15148	
388	0	32651	32397	32603	32799	23406	
389	0	32664	31183	32650	31472	30288	
390	0	32544	31093	32834	29250	36080	
391	0	32464	32764	32757	28362	36951	
392	0	32495	35085	32736	28827	36231	
393	0	32592	36440	32839	30456	37191	
394	0	32513	36254	32718	35195	39533	
395	0	32629	35776	32682	40184	31673	
396	0	32748	34455	32623	41004	31432	
397	0	32788	33552	32552	39503	36264	
398	0	32934	33381	32677	35331	35940	
399	0	33123	32344	32800	30470	29813	
400	0	33123	31369	32609	28206	32064	
401	0	32915	31004	32698	30715	47174	
402	0	32976	31326	32573	34962	58493	
403	0	33064	31785	32583	37761	52731	
404	0	33141	31479	32637	35973	51590	
405	0	32976	30960	32708	30882	36154	
406	0	32872	30818	32688	27764	12714	
407	0	32805	30031	32703	26240	13002	
408	0	32638	29703	32873	26790	16667	
409	0	32616	28867	32848	29370	25052	
410	0	32613	29031	32733	30471	30773	
411	0	32746	31386	32653	30288	27179	
412	0	32828	34257	32640	31642	20240	
413	0	32744	35271	32614	32360	34172	
414	0	32706	35248	32705	31815	35554	
415	0	32808	34818	32694	36275	32719	
416	0	32838	34924	32775	40173	32947	
417	0	32722	35256	32736	38035	40640	
418	0	32688	34426	32710	36354	45927	
419	0	32775	32733	32727	34802	38508	
420	0	32848	30167	32710	33951	37671	
421	0	32667	28955	32746	34293	34875	
422	0	32582	29460	32758	32527	19804	
423	0	32651	30692	32763	27343	17740	
424	0	32835	31595	32701	26713	25961	
425	0	32632	32251	32711	29063	29191	
426	0	32626	32384	32664	34285	36393	
427	0	32507	32794	32644	37037	33328	
428	0	32474	34265	32592	36493	29854	
429	0	32416	35547	32617	35105	30336	
430	0	32283	36014	32605	31189	37952	
431	0	32231	35344	32707	28731	45794	
432	0	32408	35259	32761	29263	44103	
433	0	32758	35391	32829	29172	38032	
434	0	32805	35673	32775	29231	33458	
435	0	32928	35707	32711	30501	35022	
436	0	32903	34826	32676	32674	42154	
437	0	32868	33814	32728	37740	42692	
438	0	32929	32045	32754	42684	24197	
439	0	33016	29733	32762	43046	21768	
440	0	32960	27973	32691	39751	27302	
441	0	33049	27452	32670	38300	33099	
442	0	33133	28024	32749	36020	33419	
443	0	33016	29470	32833	29989	20477	
444	0	32984	30326	32755	27551	23234	
445	0	33035	31994	32740	26683	27410	
446	0	32886	33455	32594	27296	24958	
447	0	32841	34938	32612	24858	27305	
448	0	32988	34964	32632	22684	39101	
449	0	33004	35431	32762	23815	42489	
450	0	32864	36326	32738	29528	33722	
451	0	32582	36980	32758	34311	37555	
452	0	32474	37048	32790	39353	43527	
453	0	32400	36101	32792	42567	38883	
454	0	32626	33599	32827	43419	32052	
455	0	32736	29291	32799	39335	33726	
456	0	32910	26530	32775	35152	30826	
457	0	33114	25462	32576	30691	21156	
458	0	33035	26695	32495	29459	18265	
459	0	32786	29453	32576	31436	26794	
460	0	32621	32232	32667	30197	33791	
461	0	32710	34151	32858	27399	35533	
462	0	32766	35877	32766	29302	40361	
463	0	32790	35847	32805	31189	40674	
464	0	32704	34791	32793	32383	39821	
465	0	32745	33440	32707	32753	39958	
466	0	32953	33287	32706	32563	39655	
467	0	32760	33349	32728	33559	38264	
468	0	32876	33871	32739	31815	36571	
469	0	32906	32730	32699	30025	33235	
470	0	32813	31148	32711	30339	32594	
471	0	33029	30736	32671	28776	32248	
472	0	33125	31321	32599	29766	31542	
473	0	32997	33238	32611	33188	34940	
474	0	32825	33882	32594	39456	30919	
475	0	32930	33764	32684	41936	28071	
476	0	32905	34762	32701	41055	29803	
477	0	32842	35250	32672	38554	38637	
478	0	32720	35234	32717	32740	37764	
479	0	32628	36260	32729	30128	18358	
480	0	32516	36239	32638	29097	16079	
481	0	32608	34199	32637	29399	25059	
482	0	32585	30998	32562	30893	30183	
483	0	32462	28385	32560	33165	26853	
484	0	32848	28735	32543	34191	29649	
485	0	33090	31109	32603	34498	35247	
486	0	33166	33183	32676	34422	41159	
487	0	33080	33232	32647	32121	43527	
488	0	32980	32360	32647	29870	35140	
489	0	32836	30165	32633	30143	26614	
490	0	32754	28635	32650	32768	31281	
491	0	32792	29387	32678	34989	35521	
492	0	32797	30715	32747	34863	40400	
493	0	32792	32740	32711	32664	35820	
494	0	32609	33932	32730	30376	25064	
495	0	32339	34028	32736	30782	28301	
496	0	32426	32942	32743	31611	39040	
497	0	32701	32071	32716	30727	39127	
498	0	33038	31957	32672	32725	37297	
499	0	33036	32438	32685	34584	34611	
500	0	32826	32967	32726	37612	23282	
501	0	32735	32843	32839	38317	25739	
502	0	32858	32611	32786	35287	25953	
503	0	32805	32557	32647	31939	29191	
504	0	32838	32827	32637	29675	33791	
505	0	32740	32538	32614	29666	38072	
506	0	32669	32807	32770	29677	38467	
507	0	32624	33618	32790	30774	27632	
508	0	32540	35276	32722	32009	23063	
509	0	32164	37618	32830	32515	29342	
510	0	32362	38696	32888	32552	42680	
511	0	32666	37490	32818	31010	47474	
512	0	32684	34409	32837	29971	45604	
513	0	32858	31017	32843	30937	41820	
514	0	33103	28408	32813	36096	39097	
515	0	33246	27204	32688	36898	30209	
516	0	33256	27693	32548	35545	23909	
517	0	33108	28984	32566	32681	20958	
518	0	33130	30974	32555	33477	22640	
519	0	33072	32549	32620	32463	29897	
520	0	32884	33008	32756	28884	34243	
521	0	32662	33570	32740	27120	36634	
522	0	32700	32775	32723	28200	44472	
523	0	32662	32535	32705	31339	42146	
524	0	32752	32538	32877	34064	28869	
525	0	32600	32466	32772	32762	18462	
526	0	32540	32129	32797	33250	32553	
527	0	32639	31194	32815	32659	38437	
528	0	32733	31861	32758	31558	23827	
529	0	32865	33837	32834	36904	12491	
530	0	32882	36780	32724	42521	21112	
531	0	32863	38144	32740	45010	30506	
532	0	32926	38535	32769	42726	36184	
533	0	32768	37688	32710	35730	39748	
534	0	32648	36847	32675	30125	43822	
535	0	32796	35222	32688	28328	50962	
536	0	32752	31736	32563	28632	46531	
537	0	32748	27492	32521	32461	38403	
538	0	32922	24285	32812	37818	30255	
539	0	32934	24355	32848	41420	21978	
540	0	32892	26040	32786	39918	14961	
541	0	32905	27727	32760	36178	19917	
542	0	32905	30056	32760	27785	34080	
543	0	33032	32392	32728	17716	40549	
544	0	32972	34162	32751	13610	39042	
545	0	32722	34995	32696	16339	38518	
546	0	32481	35130	32759	23440	36340	
547	0	32482	34640	32793	30063	29355	
548	0	32558	33426	32800	34707	29767	
549	0	32303	32642	32646	34769	35136	
550	0	32336	33437	32634	35138	39092	
551	0	32262	34991	32699	34695	39815	
552	0	32405	34857	32681	32472	34919	
553	0	32400	34338	32794	30994	32641	
554	0	32395	35183	32730	33618	33314	
555	0	32444	36340	32713	39751	35116	
556	0	32300	38463	32794	41742	35323	
557	0	32262	38816	32818	38919	32319	
558	0	32284	35602	32829	33216	31275	
559	0	32612	31017	32787	31636	26610	
560	0	32866	25908	32714	33143	29923	
561	0	33016	23428	32676	36818	36414	
562	0	33069	23596	32704	40889	35941	
563	0	32966	26194	32583	39260	33106	
564	0	32869	29253	32634	34550	36891	
565	0	32650	31664	32571	32548	27232	
566	0	32614	32843	32630	31914	20455	
567	0	32460	33579	32666	30948	21517	
568	0	32532	33501	32704	29539	27177	
569	0	32512	32581	32738	30094	21336	
570	0	32434	32507	32663	32325	26989	
571	0	32674	34403	32786	32832	35229	
572	0	32868	36404	32775	37118	41656	
573	0	32792	38097	32736	37636	35920	
574	0	32802	38247	32793	37355	28433	
575	0	32829	37128	32757	31982	31559	
576	0	32905	33448	32647	24289	40745	
577	0	33159	30139	32637	20230	42666	
578	0	33037	28853	32724	21887	40853	
579	0	33247	29298	32839	24182	39574	
580	0	33176	31138	32792	28997	29046	
581	0	32993	32927	32824	33043	29715	
582	0	32663	34243	32819	34582	30869	
583	0	32541	35118	32869	34582	35732	
584	0	32653	35478	32758	34933	30215	
585	0	32907	34855	32773	37093	28099	
586	0	33082	32923	32677	37345	27687	
587	0	33287	29944	32704	36090	34110	
588	0	33420	28295	32707	34055	41082	
589	0	33484	29383	32681	31994	40788	
590	0	33294	31140	32623	32943	43784	
591	0	33068	32121	32578	33612	36096	
592	0	33068	33366	32502	34731	18884	
593	0	33062	33825	32492	36850	18182	
594	0	33048	34245	32573	35753	29459	
595	0	33004	34101	32594	33814	37731	
596	0	32767	33910	32751	30278	35120	
597	0	32804	34157	32719	25659	32199	
598	0	32873	34638	32715	26695	30804	
599	0	33076	35836	32772	30932	36157	
600	0	33303	36263	32795	32816	31770	
601	0	33404	35463	32642	34300	21162	
602	0	33388	33627	32749	35847	21731	
603	0	32997	32294	32732	33611	26880	
604	0	32568	31129	32756	33964	40781	
605	0	32438	31512	32849	32799	39544	
606	0	32576	32242	32669	33182	42615	
607	0	32454	32552	32696	29810	37827	
608	0	32304	31839	32637	27904	34639	
609	0	32334	31768	32855	29365	33698	
610	0	32432	32372	32853	33024	41145	
611	0	32432	33444	32813	39037	46144	
612	0	32310	33939	32833	43463	44303	
613	0	32416	33886	32911	41159	34778	
614	0	32368	32975	32950	41503	27913	
615	0	32348	32024	32861	39724	21156	
616	0	32354	31250	32775	37293	12700	
617	0	32398	30868	32681	34134	21010	
618	0	32488	30394	32718	30915	30973	
619	0	32479	31197	32681	28883	33776	
620	0	32424	33155	32702	27202	31980	
621	0	32540	34748	32701	22808	20643	
622	0	32440	35011	32752	17714	18585	
623	0	32584	33179	32704	23559	26252	
624	0	32868	31445	32736	33943	37554	
625	0	32940	30968	32676	41661	40368	
626	0	32749	30682	32712	45729	44381	
627	0	33101	30215	32638	42177	49223	
628	0	33324	31624	32637	37324	52196	
629	0	33280	32986	32656	31267	46917	
630	0	33282	33083	32632	24754	31440	
631	0	33188	31298	32617	23967	35277	
632	0	33142	29074	32578	26404	40631	
633	0	33154	27584	32596	26210	35230	
634	0	33259	26984	32681	25809	24004	
635	0	33288	28476	32690	27909	20220	
636	0	32928	30859	32679	33397	22090	
637	0	32643	33636	32534	34382	25129	
638	0	32538	35559	32711	33383	20415	
639	0	32644	36674	32868	35165	28354	
640	0	32493	37204	32749	35641	37346	
641	0	32402	36156	32762	36167	42139	
642	0	32377	35277	32815	37133	50560	
643	0	32449	33218	32647	34909	49735	
644	0	32616	32914	32616	28872	29530	
645	0	32768	33828	32677	29554	10330	
646	0	32734	34879	32763	32855	4377	
647	0	32775	34292	32740	34064	17795	
648	0	32696	32281	32759	34792	36413	
649	0	32652	29597	32729	34125	39431	
650	0	32743	27471	32705	32361	37557	
651	0	32745	28253	32775	30479	37126	
652	0	32636	30719	32797	30991	34842	
653	0	32504	32793	32591	32030	29929	
654	0	32634	34084	32565	35570	36654	
655	0	32768	34640	32624	39005	41479	
656	0	32818	34409	32659	39457	43075	
657	0	32704	34764	32835	34016	44207	
658	0	32748	35335	32748	32672	45021	
659	0	32756	35897	32774	30970	37970	
660	0	32740	35369	32704	29680	28479	
661	0	32680	34261	32701	29074	20325	
662	0	32704	33961	32687	30376	21225	
663	0	32787	33782	32737	32245	22146	
664	0	32768	33472	32748	34228	33470	
665	0	32672	33280	32683	35206	40347	
666	0	32570	33451	32575	35895	37749	
667	0	32692	33363	32545	37063	39942	
668	0	32729	32504	32692	36021	41258	
669	0	32908	32041	32628	30516	36460	
670	0	33133	31264	32639	25283	25107	
671	0	33096	32057	32635	26795	27981	
672	0	32970	32559	32787	33314	26528	
673	0	32954	32022	32775	39347	30795	
674	0	32807	31894	32813	39243	32198	
675	0	32564	30923	32749	35758	29104	
676	0	32308	30272	32755	30042	30780	
677	0	32506	30567	32792	26032	36629	
678	0	32868	31010	32754	24165	29238	
679	0	32976	31297	32640	27104	26968	
680	0	32809	31616	32576	35040	28751	
681	0	32846	31818	32620	41670	22713	
682	0	32896	32410	32760	41892	26664	
683	0	32873	33325	32753	35781	32251	
684	0	32871	33990	32764	29121	32583	
685	0	32775	34141	32819	27049	31187	
686	0	32653	34527	32731	29717	35275	
687	0	32585	35519	32692	32402	42451	
688	0	32558	36622	32826	30877	41991	
689	0	32832	36410	32824	32822	42287	
690	0	32486	34951	32698	34561	38725	
691	0	32396	32535	32661	34322	42864	
692	0	32496	30564	32816	37358	43695	
693	0	32577	28038	32839	40802	38780	
694	0	32800	25222	32853	41041	27762	
695	0	33186	24600	32760	37045	29298	
696	0	33380	26333	32624	32030	31006	
697	0	33338	28995	32506	28482	31621	
698	0	33142	32006	32536	27458	25068	
699	0	33092	35876	32648	30011	27713	
700	0	32905	38783	32719	30637	30535	
701	0	32853	40050	32708	29511	32870	
702	0	32848	39244	32756	25669	28558	
703	0	32662	36129	32741	23461	24376	
704	0	32556	32152	32668	23940	37046	
705	0	32586	29400	32716	27415	47336	
706	0	32704	28562	32793	30823	48353	
707	0	32687	29442	32692	31465	33280	
708	0	32616	32301	32693	32428	19346	
709	0	32455	34424	32891	34262	9691	
710	0	32448	34395	32852	38704	22971	
711	0	32460	33133	32744	41872	35963	
712	0	32664	30818	32775	42427	42119	
713	0	33016	27768	32775	38043	40473	
714	0	33042	26350	32651	31875	33860	
715	0	32792	28027	32539	28080	28782	
716	0	32876	30884	32508	29736	23010	
717	0	32882	32148	32560	34728	25817	
718	0	33072	32640	32629	37764	39916	
719	0	33130	33362	32690	36782	47170	
720	0	33104	34570	32718	32320	39521	
721	0	33116	35453	32768	26672	24820	
722	0	32853	35957	32760	25944	24218	
723	0	32736	36578	32704	31120	32576	
724	0	32619	36359	32756	36887	35896	
725	0	32534	36098	32822	40548	25829	
726	0	32743	35776	32831	41106	31287	
727	0	32862	34959	32753	38431	35155	
728	0	32728	33705	32768	34395	41086	
729	0	32559	32708	32771	29084	41110	
730	0	32809	30965	32767	24601	37680	
731	0	33166	29298	32866	22909	28115	
732	0	33320	27412	32911	28981	24317	
733	0	33088	27363	32742	30919	30352	
734	0	32764	29208	32656	33723	39961	
735	0	32666	31886	32647	37321	46374	
736	0	32420	34472	32592	37058	37714	
737	0	32199	35384	32606	34984	26406	
738	0	32070	34117	32618	34066	27406	
739	0	32125	32522	32626	34170	33002	
740	0	32568	32087	32698	32937	31975	
741	0	32560	32469	32627	32662	35429	
742	0	32577	34004	32567	30849	38095	
743	0	32701	35206	32568	31283	36336	
744	0	32676	35152	32646	32936	27241	
745	0	32711	35469	32729	32252	25190	
746	0	32705	34956	32608	31718	19164	
747	0	32805	34586	32580	31993	22086	
748	0	33064	34052	32514	33435	38727	
749	0	33192	34198	32613	33180	34637	
750	0	32989	34146	32651	29277	39124	
751	0	32988	34152	32741	24784	35131	
752	0	33080	33676	32775	26107	24414	
753	0	32907	32337	32761	30067	27079	
754	0	32510	31312	32794	35097	33043	
755	0	32337	30301	32740	40135	37245	
756	0	32232	30610	32805	46610	34546	
757	0	32392	31112	32801	45891	39922	
758	0	32603	32611	32667	37187	44024	
759	0	32789	33720	32734	31687	38850	
760	0	32928	33632	32775	27560	26080	
761	0	33046	33651	32765	25744	17115	
762	0	33096	31983	32724	26307	18067	
763	0	33270	30207	32719	29403	25298	
764	0	33227	29172	32667	31168	38957	
765	0	33195	29976	32665	35288	46714	
766	0	32923	32166	32671	36980	47200	
767	0	32868	34437	32699	37883	44893	
768	0	32692	35574	32757	37992	32618	
769	0	32731	35688	32728	30768	15364	
770	0	32624	35278	32731	26334	18963	
771	0	32616	34188	32720	25158	37548	
772	0	32666	32348	32749	29376	37925	
773	0	32840	30963	32663	33640	35895	
774	0	32850	30874	32594	34503	33691	
775	0	32966	32583	32677	35975	35098	
776	0	32850	33765	32685	36809	31474	
777	0	32997	33385	32825	36136	32416	
778	0	33222	31431	32807	32402	36944	
779	0	33256	28885	32679	28363	33102	
780	0	33180	27804	32560	27857	30025	
781	0	33135	28980	32614	29524	30797	
782	0	33176	30612	32686	34174	41074	
783	0	32896	31124	32755	36006	43926	
784	0	32544	30015	32764	33935	41827	
785	0	32477	29797	32717	31331	41815	
786	0	32392	31696	32686	31856	26152	
787	0	32387	34044	32745	32794	14468	
788	0	32512	35139	32762	32281	19101	
789	0	32560	35073	32815	31523	28226	
790	0	32634	34454	32869	32000	39093	
791	0	32732	33623	32650	33080	39153	
792	0	32800	32784	32543	34617	26657	
793	0	32898	32733	32572	33068	14994	
794	0	32832	31613	32615	32928	15104	
795	0	33117	31525	32603	32360	32896	
796	0	33010	33710	32619	32244	36955	
797	0	32736	36059	32563	30727	45050	
798	0	32716	35820	32586	32018	48097	
799	0	32597	33411	32597	36525	42565	
800	0	32553	30053	32558	39778	37485	
801	0	32612	28091	32583	38391	27600	
802	0	32834	28282	32547	33612	22714	
803	0	33127	29434	32616	29936	28701	
804	0	33125	30822	32669	30163	37049	
805	0	32712	32950	32695	33390	38320	
806	0	32725	36189	32712	33416	46584	
807	0	32554	38968	32740	31376	45415	
808	0	32280	40610	32737	30623	42111	
809	0	32263	38587	32805	28499	38529	
810	0	32485	35448	32744	29672	28332	
811	0	32966	32589	32723	30829	20345	
812	0	33202	30649	32735	28674	17935	
813	0	33040	29382	32662	28424	19371	
814	0	33024	28271	32603	29179	20747	
815	0	32980	28108	32662	33821	26119	
816	0	32728	29025	32864	37030	31826	
817	0	32592	30931	32749	38075	29823	
818	0	32548	32647	32667	37413	30781	
819	0	32670	34203	32724	37680	36177	
820	0	32784	37092	32743	40244	40720	
821	0	32927	39066	32801	41837	35616	
822	0	32863	38755	32699	36926	35431	
823	0	33021	37010	32686	30475	30694	
824	0	32796	35873	32644	26933	33381	
825	0	32414	35066	32740	26440	38768	
826	0	32203	34480	32827	28518	37459	
827	0	32190	32643	32803	32382	34958	
828	0	32185	30397	32762	30819	40274	
829	0	32510	29032	32788	31183	44666	
830	0	32705	27769	32795	35764	47111	
831	0	32936	26946	32729	35329	43827	
832	0	33296	25967	32679	35926	38072	
833	0	33432	26910	32660	35481	31562	
834	0	32968	29101	32793	31724	8408	
835	0	32668	31321	32811	28027	5687	
836	0	32722	33233	32803	29250	23716	
837	0	32890	33983	32703	31888	25594	
838	0	32832	34632	32722	32420	33894	
839	0	32740	34063	32633	32166	39469	
840	0	32683	34443	32711	32414	44908	
841	0	32384	34744	32730	30378	33516	
842	0	32448	34904	32711	27845	32978	
843	0	32626	35105	32605	29440	29777	
844	0	32616	34311	32624	31511	29065	
845	0	32739	33274	32573	32710	36395	
846	0	32694	32455	32677	32727	34353	
847	0	32548	32045	32729	33479	30764	
848	0	32516	32610	32775	37232	29063	
849	0	32676	34675	32775	35910	34130	
850	0	32820	35576	32691	33936	41072	
851	0	32936	36969	32785	31871	42863	
852	0	32997	36185	32683	32270	32827	
853	0	32790	34335	32659	37008	24543	
854	0	32669	31019	32577	38426	27077	
855	0	32921	27834	32569	41098	34904	
856	0	33136	27163	32549	41236	33114	
857	0	33198	27841	32668	33554	35676	
858	0	33216	30648	32801	26881	37106	
859	0	33232	33959	32745	25890	33899	
860	0	33304	34880	32704	26712	18502	
861	0	33177	34016	32671	27604	7586	
862	0	32832	33304	32648	28936	28379	
863	0	32680	32176	32704	29336	39842	
864	0	32672	29855	32762	30368	42133	
865	0	32516	27462	32720	32123	39168	
866	0	32554	27121	32678	33583	37094	
867	0	32530	28478	32630	33933	37743	
868	0	32539	30439	32601	33147	36563	
869	0	32638	32870	32775	32157	28327	
870	0	32640	35559	32816	31470	32917	
871	0	32644	36770	32806	31444	42326	
872	0	32538	36944	32871	35758	47396	
873	0	32488	36379	32763	38904	38837	
874	0	32517	35602	32800	38710	27655	
875	0	32576	35588	32787	36486	19273	
876	0	32716	36052	32711	30822	24046	
877	0	32538	36307	32760	28366	23641	
878	0	32648	36727	32768	29693	37908	
879	0	32754	34791	32700	35536	39913	
880	0	32876	30982	32700	39096	32888	
881	0	32868	27306	32649	38392	27673	
882	0	32904	24737	32829	36664	26276	
883	0	33142	24369	32848	33449	38060	
884	0	33407	26368	32826	32113	39487	
885	0	33280	29648	32678	30616	27966	
886	0	32920	32868	32661	29191	22015	
887	0	32732	34045	32771	29062	29207	
888	0	32640	34857	32858	26975	29368	
889	0	32558	34601	32742	27206	36000	
890	0	32604	34670	32786	28579	41678	
891	0	32728	34303	32790	32795	39061	
892	0	32669	34424	32746	35847	28482	
893	0	32816	35169	32659	38333	23555	
894	0	32832	35931	32690	35578	34075	
895	0	32849	34724	32639	33763	33286	
896	0	32816	34659	32704	34115	32639	
897	0	32800	35187	32772	35280	29449	
898	0	32722	35015	32773	35847	24787	
899	0	32620	34720	32793	31352	40778	
900	0	32460	34680	32680	30122	54471	
901	0	32594	33567	32738	30984	51655	
902	0	32583	33652	32759	32184	41552	
903	0	32404	33561	32620	35458	31012	
904	0	32464	32438	32609	36357	18320	
905	0	32712	29967	32568	33032	21233	
906	0	33029	28269	32481	34298	28672	
907	0	33314	27569	32464	33266	27822	
908	0	33346	28634	32579	29939	28235	
909	0	33072	31110	32640	30480	33001	
910	0	33010	33712	32688	31652	44456	
911	0	32775	33931	32755	34430	52339	
912	0	32784	33530	32808	31257	43587	
913	0	33028	32317	32723	24708	34695	
914	0	32928	30502	32755	22151	19534	
915	0	32674	30120	32775	27331	15664	
916	0	32738	29997	32568	35784	12579	
917	0	32898	30355	32571	39858	18208	
918	0	33129	30907	32611	38329	33383	
919	0	32905	32029	32833	38573	36197	
920	0	32796	32680	32842	34606	37474	
921	0	32612	33195	32775	29551	36742	
922	0	32504	32925	32750	28201	29633	
923	0	32368	34194	32752	27879	35053	
924	0	32293	35502	32797	29326	37246	
925	0	32360	36182	32792	34724	35042	
926	0	32409	35774	32775	36580	38770	
927	0	32523	36202	32765	35134	33280	
928	0	32453	37779	32813	33105	24284	
929	0	32509	39719	32775	32425	26176	
930	0	32685	40064	32829	33130	32324	
931	0	32807	37538	32775	33687	37874	
932	0	32783	32199	32845	33305	37265	
933	0	32963	27550	32758	33342	38547	
934	0	33292	24927	32728	33084	43015	
935	0	33344	22591	32698	33296	54650	
936	0	33147	22023	32712	32928	48407	
937	0	32824	23118	32784	32277	31149	
938	0	32596	25021	32799	32659	17307	
939	0	32898	26430	32839	32587	13742	
940	0	33138	29051	32857	32459	16031	
941	0	33234	33344	32796	32221	27697	
942	0	33192	36295	32689	32551	32320	
943	0	32972	37383	32646	31687	39798	
944	0	32827	36980	32694	30517	40870	
945	0	32646	36635	32653	31933	37334	
946	0	32484	36953	32749	34752	34695	
947	0	32322	37366	32755	36979	37265	
948	0	32442	36945	32704	37172	29644	
949	0	32548	35323	32732	36464	27695	
950	0	32762	33402	32839	36125	37712	
951	0	32988	32963	32820	33287	37463	
952	0	32800	32921	32839	28092	36077	
953	0	32544	33052	32816	24766	21144	
954	0	32386	32693	32775	23674	28152	
955	0	32484	33714	32789	28194	37242	
956	0	32608	35173	32784	34448	28408	
957	0	32708	35644	32656	41496	22329	
958	0	32902	35904	32770	45651	25540	
959	0	33088	35241	32762	44464	16307	
960	0	33024	33146	32699	38022	33820	
961	0	32857	31576	32654	29373	41671	
962	0	32853	30914	32699	24485	41792	
963	0	32720	31045	32703	24837	38008	
964	0	32683	31647	32787	28014	36999	
965	0	32648	32775	32775	31492	30574	
966	0	32672	33453	32829	34674	27255	
967	0	32744	32963	32775	35290	32659	
968	0	32632	30813	32722	32473	31702	
969	0	32528	29323	32757	31483	31035	
970	0	32456	28807	32690	33799	33639	
971	0	32796	30130	32625	35758	37167	
972	0	32910	31274	32647	34418	40382	
973	0	32873	32869	32613	31917	42878	
974	0	33052	33446	32632	28976	39379	
975	0	33072	34262	32534	28525	35608	
976	0	32906	34453	32579	30598	33685	
977	0	32952	34674	32685	32960	39109	
978	0	32757	34576	32666	32770	46104	
979	0	32432	33091	32712	29129	47015	
980	0	32680	30791	32811	26758	35888	
981	0	32748	29063	32805	29811	30009	
982	0	32661	27685	32788	35357	23167	
983	0	32848	27948	32692	38500	6521	
984	0	32579	31238	32732	38641	6697	
985	0	32530	34954	32710	36938	18790	
986	0	32610	36916	32738	33395	25218	
987	0	32749	38016	32797	29390	32031	
988	0	32792	37416	32785	31017	42456	
989	0	33057	36861	32726	36009	49073	
990	0	33116	37042	32775	40647	53714	
991	0	32996	34978	32803	40743	52218	
992	0	32902	29845	32768	37482	42217	
993	0	32988	25786	32808	30748	23652	
994	0	33282	24097	32792	24904	10419	
995	0	33198	24414	32805	20176	18533	
996	0	33058	25992	32745	22867	16787	
997	0	33013	27424	32726	29363	19480	
998	0	32919	28585	32720	34594	31472	
999	0	32860	29782	32715	39976	37924	
1000	0	32906	31312	32741	41193	36923	
1001	0	32870	34162	32725	37801	38318	
1002	0	32760	37726	32800	33176	39220	
1003	0	32760	39456	32787	27809	46792	
1004	0	32740	38189	32664	27003	44886	
1005	0	32576	35376	32685	27414	42301	
1006	0	32596	33032	32702	29319	31120	
1007	0	32706	30948	32775	31122	27913	
1008	0	32790	31490	32775	32528	24790	
1009	0	32672	32829	32749	31995	30323	
1010	0	32650	32692	32753	32101	31795	
1011	0	32646	32675	32717	31263	32902	
1012	0	32612	32327	32759	32190	29966	
1013	0	32472	32690	32747	33107	29490	
1014	0	32400	33959	32717	34554	39049	
1015	0	32720	35110	32789	37248	41674	
1016	0	32598	35867	32775	38896	29416	
1017	0	32660	36585	32803	40107	29504	
1018	0	32700	37695	32820	38384	26914	
1019	0	32729	38058	32787	35179	38215	
1020	0	32716	36450	32720	33054	39533	
1021	0	32738	34352	32673	30521	37056	
1022	0	32760	31890	32835	30280	17084	
1023	0	32837	30807	32870	31771	20792	
1024	0	32981	30906	32898	32518	26178	
1025	0	32923	31739	32837	32879	28461	
1026	0	32809	32527	32742	34339	32237	
1027	0	32816	32571	32684	34070	39682	
1028	0	32839	31953	32676	31477	39111	
1029	0	32602	31714	32688	29775	32767	
1030	0	32480	31637	32765	30139	27493	
1031	0	32486	32569	32739	30029	28704	
1032	0	32716	34368	32744	30503	33908	
1033	0	32768	34447	32787	32314	44763	
1034	0	32730	34087	32852	34446	41783	
1035	0	32504	33565	32789	35792	42717	
1036	0	32396	34546	32775	35185	46040	
1037	0	32398	35258	32711	34063	41839	
1038	0	32582	34287	32774	33353	43279	
1039	0	32964	31785	32756	32245	38962	
1040	0	33244	28954	32816	32400	24259	
1041	0	33268	27900	32795	31392	15473	
1042	0	33176	27555	32802	31239	19663	
1043	0	33020	28063	32647	32242	21922	
1044	0	32786	28978	32534	33421	17943	
1045	0	32568	30764	32470	33159	25298	
1046	0	32784	32040	32548	32297	44811	
1047	0	32745	32648	32731	33157	35468	
1048	0	32834	33016	32672	37241	13527	
1049	0	32960	32972	32675	39332	14535	
1050	0	33074	33286	32720	35666	36178	
1051	0	32955	32696	32765	30831	43459	
1052	0	32994	32139	32842	26174	41830	
1053	0	32993	31796	32819	28417	42727	
1054	0	32912	33054	32813	31407	34433	
1055	0	32665	34589	32832	30791	34887	
1056	0	32504	34303	32839	30364	34779	
1057	0	32528	31912	32801	30663	38063	
1058	0	32552	29282	32715	32453	38436	
1059	0	32720	27698	32698	32665	40437	
1060	0	32866	28121	32711	27640	38937	
1061	0	33013	29868	32687	29140	31782	
1062	0	32952	34542	32690	33480	38394	
1063	0	32827	36694	32665	35874	33816	
1064	0	32849	36690	32775	37238	27244	
1065	0	32977	36323	32815	38300	29605	
1066	0	32827	36002	32784	38611	27302	
1067	0	32775	35040	32758	37409	23025	
1068	0	32836	33477	32785	36487	21957	
1069	0	32803	31718	32705	31564	22153	
1070	0	32692	29929	32774	28632	19632	
1071	0	32584	29569	32747	28356	25701	
1072	0	32837	29524	32799	31779	35202	
1073	0	33120	30482	32680	33465	44778	
1074	0	33080	32143	32735	33302	44719	
1075	0	32937	34200	32669	30714	45120	
1076	0	32656	36223	32655	28703	46881	
1077	0	32753	36829	32710	32101	45741	
1078	0	32966	36160	32743	36351	40551	
1079	0	32701	33728	32606	33950	35938	
1080	0	32484	31000	32584	27536	19997	
1081	0	32553	28933	32524	25584	8954	
1082	0	32736	28283	32636	29933	13212	
1083	0	32834	30249	32684	34868	23525	
1084	0	32752	31686	32844	38019	32132	
1085	0	32573	32938	32830	37957	30199	
1086	0	32596	34210	32807	35955	36485	
1087	0	32572	34892	32722	34572	46370	
1088	0	32654	34818	32578	32148	48361	
1089	0	32792	34804	32621	30466	43732	
1090	0	32878	34565	32698	30411	39795	
1091	0	32720	34608	32733	31412	44551	
1092	0	32818	34902	32775	32446	41923	
1093	0	32696	35579	32745	33855	40247	
1094	0	32578	36384	32742	36202	35004	
1095	0	32530	36448	32748	36065	10070	
1096	0	32427	34626	32737	32177	9548	
1097	0	32583	31960	32677	31694	20765	
1098	0	32866	29916	32677	30678	30902	
1099	0	32869	27640	32706	30586	28195	
1100	0	32920	26951	32576	30861	19756	
1101	0	32875	27000	32598	30615	23821	
1102	0	32884	28406	32594	33754	30860	
1103	0	32696	29487	32559	36135	32220	
1104	0	32498	30290	32464	35783	39156	
1105	0	32668	32272	32495	35129	43651	
1106	0	33160	33494	32592	31789	45659	
1107	0	33284	33749	32623	29734	48301	
1108	0	33200	34605	32640	28802	47890	
1109	0	33178	35606	32649	32028	45987	
1110	0	32996	35540	32824	36121	32490	
1111	0	32843	36604	32736	39216	19568	
1112	0	32680	37220	32728	38653	13156	
1113	0	32581	36618	32775	35122	20574	
1114	0	32610	35726	32720	34362	33315	
1115	0	32711	33953	32704	31854	42603	
1116	0	32493	31720	32722	26276	36460	
1117	0	32395	30281	32743	26341	29038	
1118	0	32723	29247	32769	30674	30367	
1119	0	32718	29905	32821	32960	23745	
1120	0	32541	32193	32743	30854	23635	
1121	0	32392	34173	32861	29280	32063	
1122	0	32701	35456	32725	31894	32902	
1123	0	32669	35373	32795	34329	28515	
1124	0	32504	34690	32775	36577	38568	
1125	0	32468	33722	32844	33406	52059	
1126	0	32672	31762	32808	28561	53548	
1127	0	33117	28260	32878	28109	55064	
1128	0	33250	26150	32645	30547	47144	
1129	0	33250	26954	32583	35060	36257	
1130	0	33217	28704	32572	38978	4133	
1131	0	33016	30821	32548	44304	4694	
1132	0	32937	32406	32582	44580	25062	
1133	0	32848	33165	32587	39906	24233	
1134	0	32642	32928	32506	28648	22130	
1135	0	32728	33029	32590	20410	24594	
1136	0	32775	33607	32568	20257	31005	
1137	0	32745	33066	32658	24720	37251	
1138	0	32621	33506	32671	31653	42899	
1139	0	32548	34021	32610	35975	43415	
1140	0	32488	34661	32656	37434	42011	
1141	0	32659	34458	32625	35132	32821	
1142	0	32712	33207	32539	31973	31781	
1143	0	32793	30960	32580	31492	40128	
1144	0	33056	31005	32550	34823	46939	
1145	0	33022	32755	32613	35074	48097	
1146	0	32896	34074	32642	36112	33764	
1147	0	32848	33392	32748	36976	11512	
1148	0	33013	31933	32797	33229	16033	
1149	0	32862	31062	32813	29087	25159	
1150	0	32976	30256	32753	28820	28340	
1151	0	32888	30849	32747	30258	41437	
1152	0	32825	30247	32768	29562	41967	
1153	0	32630	30554	32791	28487	34328	
1154	0	32496	31394	32764	30243	27717	
1155	0	32442	33174	32771	32327	16967	
1156	0	32368	35107	32744	34262	23213	
1157	0	32516	36028	32728	35417	33993	
1158	0	32525	35527	32775	36447	35737	
1159	0	32584	34994	32726	35320	41762	
1160	0	32792	35268	32704	33145	39453	
1161	0	32818	35575	32716	31548	40326	
1162	0	32996	34446	32644	31143	38599	
1163	0	32960	33010	32701	31879	35056	
1164	0	32770	31708	32647	34526	34848	
1165	0	32680	30294	32640	35891	41508	
1166	0	32748	29786	32587	35706	37476	
1167	0	32768	31697	32502	33362	30812	
1168	0	32696	33631	32511	31522	25059	
1169	0	32698	34608	32608	32698	21209	
1170	0	32742	34768	32666	34019	9007	
1171	0	32758	34717	32644	34412	17374	
1172	0	32662	34685	32605	33296	29254	
1173	0	32763	34311	32663	30668	30400	
1174	0	32852	32877	32741	28851	35905	
1175	0	32902	32192	32667	30701	44901	
1176	0	33026	31589	32774	32894	35685	
1177	0	32978	31353	32642	33919	39310	
1178	0	32740	30852	32729	34962	47510	
1179	0	32433	30824	32775	36442	49780	
1180	0	32216	31271	32736	38234	46764	
1181	0	32382	31314	32683	34634	30925	
1182	0	32504	30546	32717	28646	15132	
1183	0	32775	29732	32815	27121	19844	
1184	0	33088	29988	32798	29125	30241	
1185	0	32867	30711	32749	31565	30928	
1186	0	32658	31621	32599	34122	39362	
1187	0	32863	33202	32597	35517	33241	
1188	0	32969	34713	32788	36322	29056	
1189	0	32909	36073	32664	33904	27978	
1190	0	32745	37059	32793	29326	35942	
1191	0	32512	37880	32721	29671	43388	
1192	0	32526	37731	32696	36048	42906	
1193	0	32513	36185	32690	39373	36577	
1194	0	32632	35060	32688	38098	23632	
1195	0	32796	33026	32688	31599	18977	
1196	0	33184	30889	32652	30104	31645	
1197	0	33388	28948	32657	29238	36647	
1198	0	33346	28292	32662	32767	39829	
1199	0	32975	30106	32463	32699	39291	
1200	0	32780	32526	32534	32199	32386	
1201	0	32703	34298	32505	32888	35793	
1202	0	32725	33848	32641	30660	28191	
1203	0	32952	32394	32680	26772	12598	
1204	0	33054	30957	32602	27351	17808	
1205	0	32912	30215	32573	30568	33600	
1206	0	32861	30253	32505	32804	41846	
1207	0	32794	29867	32606	33317	42994	
1208	0	32910	30249	32647	32204	43380	
1209	0	33028	31357	32619	31503	35546	
1210	0	32684	32815	32655	31478	35266	
1211	0	32410	33624	32600	31616	28217	
1212	0	32352	33392	32621	31225	26089	
1213	0	32504	32539	32731	33331	24050	
1214	0	32559	31709	32685	36251	29874	
1215	0	32642	31777	32662	38598	36017	
1216	0	32808	32845	32681	36015	34872	
1217	0	32869	34080	32573	31576	35152	
1218	0	32950	34937	32614	28804	30818	
1219	0	33018	34502	32559	31431	31717	
1220	0	33108	35064	32691	35987	42192	
1221	0	32958	34352	32696	37218	46349	
1222	0	32824	32320	32640	37609	39108	
1223	0	32872	30144	32480	36260	25607	
1224	0	32875	28063	32513	33065	26648	
1225	0	32731	28472	32614	31453	14931	
1226	0	32988	30708	32578	30912	18280	
1227	0	32724	33125	32602	31520	26887	
1228	0	32697	34823	32595	32702	33451	
1229	0	32687	35335	32661	33767	32797	
1230	0	32696	35880	32792	35502	39396	
1231	0	32683	35813	32800	34795	44823	
1232	0	32685	34073	32855	32983	38339	
1233	0	32735	31260	32799	31579	40480	
1234	0	32685	29014	32846	29543	40684	
1235	0	32846	27134	32839	28304	29010	
1236	0	32837	27629	32775	29330	23554	
1237	0	32708	30163	32829	32281	37508	
1238	0	32680	32492	32688	33224	44645	
1239	0	32656	35655	32697	34191	45799	
1240	0	32864	37078	32715	34836	38346	
1241	0	32804	37416	32613	33861	32176	
1242	0	32873	36231	32628	32791	31122	
1243	0	32796	35044	32569	29926	27074	
1244	0	32800	32993	32493	28108	17208	
1245	0	32909	32195	32466	30951	15170	
1246	0	33097	32849	32563	32587	17577	
1247	0	33020	32639	32596	37086	26244	
1248	0	32996	32293	32682	38128	35949	
1249	0	33068	32274	32710	36900	33620	
1250	0	33117	32126	32795	34227	34328	
1251	0	33125	32900	32709	33234	33121	
1252	0	32968	34028	32733	32233	27724	
1253	0	32902	33906	32724	29290	30603	
1254	0	32891	34239	32711	27247	35072	
1255	0	32736	34840	32709	30000	42107	
1256	0	32576	35812	32818	31603	53325	
1257	0	32598	37126	32807	31478	53139	
1258	0	32738	36379	32839	33870	38056	
1259	0	32630	34386	32707	36292	20986	
1260	0	32428	31528	32682	37008	19399	
1261	0	32416	28578	32696	33986	27048	
1262	0	32514	26432	32759	28476	33071	
1263	0	32622	26998	32903	27764	34842	
1264	0	32646	27947	32937	33668	35575	
1265	0	32664	29141	32890	40258	33385	
1266	0	32302	30324	32991	39625	39577	
1267	0	32261	30418	32967	36104	35304	
1268	0	32448	31555	32977	34453	34444	
1269	0	32261	33831	32966	33385	41079	
1270	0	32292	35102	32952	29728	38802	
1271	0	32498	35234	32965	29476	12355	
1272	0	32683	34546	32849	30035	21390	
1273	0	32827	33617	32871	30841	27499	
1274	0	32752	31535	32870	31788	28039	
1275	0	32698	30264	32891	31815	38516	
1276	0	32646	29437	32753	32260	37993	
1277	0	32684	29655	32835	31887	31023	
1278	0	32819	32131	32770	31239	30133	
1279	0	32987	34631	32795	32007	30155	
1280	0	32996	35864	32803	33620	40979	
1281	0	32788	36673	32703	33397	39803	
1282	0	32765	35629	32711	32109	30767	
1283	0	32740	34647	32691	32283	28039	
1284	0	32704	34429	32720	32206	33918	
1285	0	32812	34271	32676	32290	35395	
1286	0	32870	33351	32548	31363	31378	
1287	0	33109	33446	32656	33234	26537	
1288	0	33058	33567	32583	34960	28722	
1289	0	32906	32463	32587	35461	31765	
1290	0	32864	31596	32546	34259	33610	
1291	0	32844	30828	32535	33886	39387	
1292	0	32902	29394	32585	32617	35835	
1293	0	33022	27824	32525	32474	31991	
1294	0	32952	27673	32559	33346	31949	
1295	0	32857	28878	32599	34243	27638	
1296	0	32833	30566	32623	33370	23764	
1297	0	32749	32488	32634	31605	43040	
1298	0	32850	34078	32795	29125	50655	
1299	0	33020	35050	32839	27384	44690	
1300	0	32922	36102	32743	29814	42074	
1301	0	32860	37156	32809	32272	31560	
1302	0	32698	36175	32749	33903	26411	
1303	0	32618	34034	32616	34776	21134	
1304	0	32668	30907	32630	33412	16144	
1305	0	32888	28820	32667	32459	28024	
1306	0	33040	28092	32721	32744	32801	
1307	0	32965	28455	32743	33431	32755	
1308	0	32973	30829	32728	33133	34457	
1309	0	32912	33609	32759	33799	44532	
1310	0	32708	35584	32774	33216	43606	
1311	0	32584	37110	32795	31787	31152	
1312	0	32468	37046	32775	31503	29111	
1313	0	32496	35756	32720	32864	23544	
1314	0	32660	33687	32743	33341	20569	
1315	0	32816	32406	32747	32519	26212	
1316	0	32707	31486	32820	32079	23148	
1317	0	32455	31751	32812	32044	32128	
1318	0	32371	34222	32824	33711	46832	
1319	0	32440	37502	32878	36101	48016	
1320	0	32685	38704	32839	38804	39572	
1321	0	32798	38045	32772	41789	32304	
1322	0	32874	33983	32636	41031	37165	
1323	0	33222	29212	32540	34661	43015	
1324	0	33402	26154	32428	29216	31672	
1325	0	33424	27056	32532	26306	12472	
1326	0	33133	29383	32568	29042	9417	
1327	0	32838	30493	32509	29370	21432	
1328	0	32851	29931	32596	28763	31421	
1329	0	32860	29255	32615	29999	36167	
1330	0	32775	29762	32667	31303	38637	
1331	0	32771	29351	32615	33715	44916	
1332	0	32658	29631	32615	34823	42917	
1333	0	32486	30657	32551	33391	41791	
1334	0	32420	32379	32526	31514	39047	
1335	0	32511	34158	32583	31464	37895	
1336	0	32605	35865	32697	32074	39997	
1337	0	32564	36816	32738	32334	41257	
1338	0	32502	36979	32791	33185	39099	
1339	0	32624	36780	32800	33563	29439	
1340	0	32466	36242	32824	32323	21289	
1341	0	32384	35034	32869	32386	22481	
1342	0	32379	34162	32792	33321	24873	
1343	0	32500	33567	32791	32302	26799	
1344	0	32748	34136	32757	31600	31140	
1345	0	32792	34763	32742	30363	26951	
1346	0	32812	35554	32728	30513	29246	
1347	0	32899	35003	32718	32869	40503	
1348	0	33136	33643	32755	36594	35817	
1349	0	33280	33216	32757	38786	35655	
1350	0	33159	34618	32755	37071	42651	
1351	0	32956	35601	32723	35826	34093	
1352	0	32888	35756	32699	36619	29319	
1353	0	32575	32757	32685	36631	28690	
1354	0	32621	27745	32688	33984	16111	
1355	0	32976	23594	32804	29824	12666	
1356	0	33060	22495	32832	27290	31552	
1357	0	33123	23360	32899	28752	42130	
1358	0	33306	25629	32827	27383	43648	
1359	0	33200	28619	32872	27497	40711	
1360	0	32908	32105	32769	31333	36199	
1361	0	32742	34668	32745	32972	32877	
1362	0	32610	35065	32775	34047	36107	
1363	0	32632	34659	32816	30369	36102	
1364	0	32528	34739	32775	28487	34453	
1365	0	32634	34187	32775	31002	34614	
1366	0	32608	33567	32750	36010	33302	
1367	0	32756	34506	32698	42066	28654	
1368	0	32804	33109	32711	42291	26438	
1369	0	32818	32470	32793	36620	26562	
1370	0	32688	33477	32784	29992	42680	
1371	0	32787	37736	32713	26307	56808	
1372	0	32765	41916	32852	25556	54215	
1373	0	32621	42695	32760	26906	41622	
1374	0	32498	39736	32746	32522	16882	
1375	0	32716	33232	32789	37148	510	
1376	0	32807	26726	32824	39790	13620	
1377	0	32826	21020	32788	36487	28636	
1378	0	32839	20032	32829	31291	28943	
1379	0	33083	21538	32809	31945	35757	
1380	0	33088	23798	32751	31700	44166	
1381	0	32932	26945	32677	30599	39309	
1382	0	32944	30028	32766	31290	31953	
1383	0	32844	33731	32775	32999	35939	
1384	0	32861	36243	32758	34056	27968	
1385	0	32916	38299	32785	34640	23105	
1386	0	32896	39239	32818	33178	25016	
1387	0	32650	39005	32797	32217	29986	
1388	0	32583	37570	32795	30057	35029	
1389	0	32520	35817	32759	29239	37507	
1390	0	32616	33415	32730	31548	39943	
1391	0	32681	31811	32743	34601	39901	
1392	0	32571	32024	32647	35899	34667	
1393	0	32762	32765	32603	35967	31585	
1394	0	32841	33383	32653	32729	32221	
1395	0	32637	34634	32605	31858	28584	
1396	0	32488	35240	32583	32749	33334	
1397	0	32448	35531	32630	34452	33119	
1398	0	32521	35650	32647	34983	31254	
1399	0	32552	34503	32623	33230	33764	
1400	0	32630	33945	32729	31334	38848	
1401	0	32770	34089	32691	32093	48321	
1402	0	32760	34392	32733	30959	47803	
1403	0	32825	33483	32774	30724	43582	
1404	0	32812	32102	32792	31840	30360	
1405	0	32706	29733	32705	34320	18211	
1406	0	32835	28237	32652	34842	19177	
1407	0	33195	28190	32679	32531	27846	
1408	0	33199	29058	32763	31497	23830	
1409	0	33001	30599	32809	33229	21592	
1410	0	32916	32214	32839	34835	27207	
1411	0	32754	33568	32707	35529	35054	
1412	0	32676	34201	32622	34468	37369	
1413	0	32504	33951	32572	32602	30003	
1414	0	32365	33799	32642	29856	32153	
1415	0	32322	33843	32775	30398	46404	
1416	0	32542	33695	32793	32071	49967	
1417	0	32784	33223	32743	32395	49014	
1418	0	32953	32371	32733	32002	40421	
1419	0	33056	31660	32702	33412	23106	
1420	0	33071	31787	32811	33755	19863	
1421	0	32980	32742	32699	33011	25028	
1422	0	32932	34240	32584	32617	17510	
1423	0	32912	34461	32611	33058	19985	
1424	0	32952	33826	32645	33535	37584	
1425	0	32829	33264	32731	34473	46087	
1426	0	32775	31982	32675	31232	35296	
1427	0	32746	30084	32723	28901	25709	
1428	0	32880	28832	32793	30295	26310	
1429	0	32863	28650	32841	34800	32677	
1430	0	32736	28951	32720	38466	37753	
1431	0	32746	30322	32680	38850	33078	
1432	0	32891	32108	32540	35933	26379	
1433	0	33032	33337	32616	31401	30808	
1434	0	32942	34460	32685	30663	40416	
1435	0	32966	35453	32693	29729	39405	
1436	0	32709	35555	32724	28966	33399	
1437	0	32555	35970	32815	28807	31446	
1438	0	32528	35776	32749	29497	38653	
1439	0	32605	35357	32635	31634	43027	
1440	0	32616	34070	32635	32707	41953	
1441	0	32578	32486	32805	35613	37403	
1442	0	32708	31380	32762	34624	28466	
1443	0	32837	31367	32738	32932	23882	
1444	0	32822	32379	32813	32485	27617	
1445	0	32763	34507	32758	32761	28398	
1446	0	32512	36754	32679	32795	26157	
1447	0	32341	35667	32723	32418	28770	
1448	0	32585	31709	32643	30566	31723	
1449	0	32868	27778	32775	30024	40967	
1450	0	33068	26085	32827	30675	40309	
1451	0	33086	25126	32793	33711	36440	
1452	0	33094	26460	32736	37147	26834	
1453	0	33004	29618	32643	37614	17575	
1454	0	32865	31397	32717	36429	27949	
1455	0	32861	31669	32775	35682	35471	
1456	0	32984	31769	32872	32827	30029	
1457	0	32962	32617	32708	28271	27263	
1458	0	32753	34136	32587	26870	31235	
1459	0	32868	34976	32698	28750	41281	
1460	0	32968	35048	32664	30675	46336	
1461	0	32869	33347	32581	33753	44546	
1462	0	32818	32154	32552	36184	29687	
1463	0	32700	32561	32524	36487	30083	
1464	0	32550	33446	32513	37478	31599	
1465	0	32379	34461	32602	36078	38022	
1466	0	32232	35547	32559	30200	37890	
1467	0	32287	36985	32717	27782	33243	
1468	0	32410	36968	32735	29652	23783	
1469	0	32475	35044	32716	33214	21621	
1470	0	32658	33963	32747	34946	29053	
1471	0	32792	33475	32749	35264	33402	
1472	0	32775	33207	32800	36613	39215	
1473	0	32576	32900	32867	36239	37425	
1474	0	32628	33250	32803	35021	32949	
1475	0	32540	33678	32802	31708	27263	
1476	0	32573	33691	32763	29698	23789	
1477	0	32839	34613	32763	29117	32640	
1478	0	32914	34668	32775	28218	40514	
1479	0	32956	33861	32686	27331	39715	
1480	0	32853	33020	32687	28568	41047	
1481	0	32921	31645	32647	30946	41411	
1482	0	32851	30535	32700	35472	38569	
1483	0	33001	30944	32664	39670	34774	
1484	0	32839	31024	32726	40656	27910	
1485	0	32708	30194	32713	40134	22713	
1486	0	32762	28678	32825	35538	19534	
1487	0	33032	28943	32775	28894	14720	
1488	0	33134	30066	32697	25601	30316	
1489	0	33124	31972	32716	25794	36598	
1490	0	32964	32809	32699	28362	40810	
1491	0	32898	33760	32695	31267	39231	
1492	0	32936	33054	32842	34063	30843	
1493	0	32999	31875	32768	37245	24812	
1494	0	32940	30444	32775	38029	25757	
1495	0	32813	28522	32649	36844	28530	
1496	0	32793	28567	32675	37263	35755	
1497	0	32726	30631	32631	34695	35920	
1498	0	32408	32603	32629	32594	34141	
1499	0	32530	33716	32664	32433	44130	
1500	0	32601	34998	32792	31276	53767	
1501	0	32544	36520	32769	28302	46541	
1502	0	32506	37087	32813	26645	36585	
1503	0	32544	35843	32813	27357	30738	
1504	0	32516	35435	32795	30071	26314	
1505	0	32442	35543	32814	35396	22741	
1506	0	32297	35634	32768	36987	26854	
1507	0	32263	34814	32805	37736	27143	
1508	0	32657	33376	32792	38692	31273	
1509	0	33154	31654	32624	38343	38784	
1510	0	33280	30529	32512	31431	38390	
1511	0	33122	31470	32583	25307	33061	
1512	0	32916	32587	32599	25232	30038	
1513	0	33024	32509	32540	28351	25274	
1514	0	33136	31568	32593	29735	23632	
1515	0	32956	30098	32549	30318	28012	
1516	0	32995	28202	32515	31637	32082	
1517	0	33024	27570	32476	32599	34351	
1518	0	33083	27660	32612	34257	29452	
1519	0	33028	29278	32590	34912	25186	
1520	0	32955	31335	32612	34724	26555	
1521	0	32775	32937	32729	34559	33135	
1522	0	32672	34216	32746	35537	31933	
1523	0	32610	35354	32701	36258	37520	
1524	0	32490	36001	32710	34784	43652	
1525	0	32434	36274	32789	31940	40967	
1526	0	32321	37063	32823	30034	36944	
1527	0	32336	37877	32775	30484	37728	
1528	0	32444	37383	32775	34011	35805	
1529	0	32406	36487	32825	36135	32885	
1530	0	32705	35952	32827	37353	35124	
1531	0	32892	34349	32774	36221	28326	
1532	0	32802	31855	32754	31316	21937	
1533	0	32805	30310	32690	28643	27188	
1534	0	32898	29942	32635	27984	33667	
1535	0	32786	31451	32733	27857	36359	
1536	0	32860	33381	32697	29067	36583	
1537	0	32774	32831	32731	31515	33216	
1538	0	32740	30433	32703	36241	36800	
1539	0	32935	28915	32727	36438	41454	
1540	0	33234	29732	32703	36630	39327	
1541	0	33346	31292	32705	38407	37737	
1542	0	33122	32397	32739	36319	38501	
1543	0	32750	31789	32748	32795	29664	
1544	0	32572	30400	32756	30240	17494	
1545	0	32616	28592	32800	30032	13348	
1546	0	32882	27280	32738	30512	24447	
1547	0	32922	28359	32704	32672	40135	
1548	0	32687	31190	32677	34851	43440	
1549	0	32605	33819	32606	34023	41334	
1550	0	32556	37112	32640	33671	36314	
1551	0	32570	39650	32698	33120	14472	
1552	0	32684	39952	32756	31224	30696	
1553	0	32752	37966	32800	29277	42664	
1554	0	32664	34496	32787	31674	41887	
1555	0	32570	31939	32775	33498	41370	
1556	0	32414	30576	32868	33590	31149	
1557	0	32513	29957	32815	33224	19308	
1558	0	32884	29692	32797	33690	26888	
1559	0	33084	30629	32709	33110	37143	
1560	0	33040	31485	32664	30090	26119	
1561	0	33024	33610	32644	27864	29258	
1562	0	32946	35492	32635	29116	33579	
1563	0	32832	36236	32741	33740	31965	
1564	0	32692	36080	32795	38308	23538	
1565	0	32484	35216	32775	41614	27481	
1566	0	32480	33808	32717	42042	37091	
1567	0	32537	33366	32724	37761	42994	
1568	0	32920	32023	32790	30488	45078	
1569	0	33148	30373	32634	25242	42311	
1570	0	32972	29056	32519	24058	33991	
1571	0	32999	28507	32637	25997	29602	
1572	0	33090	28059	32768	29910	31528	
1573	0	33046	27851	32715	33084	26727	
1574	0	32940	28538	32675	35463	24756	
1575	0	32916	29620	32704	34093	18777	
1576	0	32729	31197	32792	31222	24046	
1577	0	32522	32423	32690	28368	33372	
1578	0	32352	32597	32560	29676	44576	
1579	0	32570	33166	32824	32091	49061	
1580	0	32760	34973	32739	33879	49341	
1581	0	32775	36344	32711	35192	37255	
1582	0	32764	37166	32774	35232	10525	
1583	0	32706	37099	32768	35950	8860	
1584	0	32564	36824	32764	35809	29732	
1585	0	32712	36292	32693	36064	44895	
1586	0	32706	35367	32624	34311	47903	
1587	0	32731	34235	32674	33087	43237	
1588	0	32664	32370	32839	31869	36818	
1589	0	32729	30983	32824	32525	37527	
1590	0	33184	30567	32726	31835	21712	
1591	0	33148	30846	32666	32199	16230	
1592	0	33184	29839	32683	34615	23081	
1593	0	33088	28391	32803	36213	29143	
1594	0	32960	28132	32711	34191	30529	
1595	0	32712	28883	32573	30864	28524	
1596	0	32601	31145	32610	30819	32824	
1597	0	32662	33795	32584	31928	46432	
1598	0	32809	35021	32706	29254	49520	
1599	0	32794	34885	32674	29731	47815	
1600	0	32530	35237	32792	31576	35016	
1601	0	32276	36144	32839	33053	26692	
1602	0	32472	36211	32847	34301	27547	
1603	0	32814	35547	32799	33733	31635	
1604	0	32742	33758	32775	33091	32321	
1605	0	32792	30828	32740	33348	36009	
1606	0	32974	29865	32711	32843	36903	
1607	0	32952	31122	32691	32428	28354	
1608	0	32563	32573	32711	33630	26849	
1609	0	32466	33862	32728	34528	34927	
1610	0	32661	34724	32687	33694	40275	
1611	0	32893	34271	32760	32327	37173	
1612	0	32800	33689	32800	30883	28019	
1613	0	32710	32065	32718	30145	20185	
1614	0	32942	30705	32547	31448	18187	
1615	0	32899	29330	32652	32370	25630	
1616	0	32701	29607	32601	32739	34055	
1617	0	32696	30720	32652	33210	41898	
1618	0	32674	32406	32614	34311	42304	
1619	0	32460	33305	32609	35617	35488	
1620	0	32533	33675	32569	33588	26208	
1621	0	32690	35248	32685	32295	23767	
1622	0	32804	36495	32686	33459	27288	
1623	0	32912	35427	32688	34940	39771	
1624	0	32989	33055	32590	35847	50056	
1625	0	33220	30976	32571	36622	49345	
1626	0	33168	30552	32726	32906	39302	
1627	0	32890	31017	32789	28825	18429	
1628	0	32663	30921	32775	29212	8763	
1629	0	32882	29647	32696	30391	12268	
1630	0	32994	28618	32672	31117	28635	
1631	0	33362	28810	32870	30336	43628	
1632	0	33050	31041	32792	30866	46270	
1633	0	32722	33926	32784	32103	39892	
1634	0	32784	36511	32711	33525	37977	
1635	0	32746	37380	32731	34823	38066	
1636	0	32656	36664	32853	33120	41402	
1637	0	32320	34587	32775	31926	44357	
1638	0	32263	32583	32661	31744	37789	
1639	0	32516	30336	32531	32451	33699	
1640	0	32689	29674	32544	36452	40617	
1641	0	32545	29558	32585	37217	27476	
1642	0	32435	29760	32771	36306	13275	
1643	0	32741	31142	32768	34365	25357	
1644	0	32942	32573	32733	30939	31124	
1645	0	33132	33636	32762	31233	27524	
1646	0	32878	33992	32692	31800	23033	
1647	0	32660	34643	32696	30232	11914	
1648	0	32724	35488	32740	29840	22386	
1649	0	32772	35801	32847	31605	31928	
1650	0	32725	35945	32707	33095	33337	
1651	0	32646	34296	32768	33817	37889	
1652	0	32773	32750	32728	34105	46193	
1653	0	32939	31483	32573	32448	48359	
1654	0	33095	31693	32490	32291	44167	
1655	0	32996	32077	32560	32435	46181	
1656	0	32818	31661	32643	31047	45253	
1657	0	32717	32288	32701	31305	34674	
1658	0	32824	33277	32749	31963	32761	
1659	0	32768	34456	32765	34774	25181	
1660	0	32652	35098	32736	36496	7269	
1661	0	32514	34866	32730	36201	11560	
1662	0	32699	34472	32763	34474	31444	
1663	0	32850	33439	32804	32207	30139	
1664	0	32899	31453	32795	31704	31391	
1665	0	32784	28370	32856	32663	38335	
1666	0	32722	26409	32818	33726	43143	
1667	0	32770	26666	32754	30286	44004	
1668	0	32665	28607	32789	28773	41289	
1669	0	32947	30709	32797	28834	28980	
1670	0	32994	32325	32805	30203	36021	
1671	0	33106	34138	32683	32859	37167	
1672	0	33092	35783	32608	34271	32288	
1673	0	32886	35811	32688	35531	30168	
1674	0	32804	34943	32626	35011	31031	
1675	0	32908	33287	32506	33757	32672	
1676	0	32718	31623	32500	32586	31883	
1677	0	32437	31567	32530	32420	28691	
1678	0	32484	31399	32596	32502	24613	
1679	0	32604	31233	32617	33405	30071	
1680	0	32653	31613	32645	34123	33598	
1681	0	32650	32657	32522	36644	31274	
1682	0	32829	33533	32658	37221	38384	
1683	0	32912	35393	32698	34734	39213	
1684	0	32903	36501	32568	30602	41021	
1685	0	32744	35676	32608	28397	44440	
1686	0	32647	33457	32606	28491	46699	
1687	0	32576	32208	32620	28030	24596	
1688	0	32656	32130	32640	29733	11030	
1689	0	32692	31931	32643	33593	23310	
1690	0	32803	31693	32715	35765	23269	
1691	0	32797	31898	32751	37087	20619	
1692	0	32756	32100	32799	36518	26883	
1693	0	32696	32728	32826	36751	30802	
1694	0	32632	35036	32818	35456	40482	
1695	0	32544	36130	32799	32255	49308	
1696	0	32713	36100	32868	28283	43714	
1697	0	32658	34850	32859	27420	29955	
1698	0	32767	32259	32813	28344	31263	
1699	0	32730	29638	32753	28688	25359	
1700	0	32742	29038	32698	31090	32508	
1701	0	32839	29668	32732	34308	47012	
1702	0	32841	31694	32735	38224	51920	
1703	0	33026	33015	32800	40213	46274	
1704	0	33008	34920	32818	39346	32079	
1705	0	32946	36231	32889	39288	26441	
1706	0	32716	35608	32860	34900	11500	
1707	0	32744	33108	32754	28012	12566	
1708	0	32932	30370	32572	23732	27511	
1709	0	33060	28281	32381	27976	35794	
1710	0	33085	27743	32604	34832	35648	
1711	0	33274	27756	32708	36625	40155	
1712	0	33219	28790	32775	35751	40879	
1713	0	32888	31072	32738	31081	40432	
1714	0	32805	34426	32712	25370	39016	
1715	0	32466	36790	32736	22435	29732	
1716	0	32263	37227	32765	23538	22099	
1717	0	32425	36037	32756	28095	21123	
1718	0	32534	35483	32626	31853	28624	
1719	0	32502	33730	32586	34311	26500	
1720	0	32584	32338	32652	37672	32329	
1721	0	32572	31917	32711	38023	37458	
1722	0	32665	30789	32690	37217	42127	
1723	0	32826	30554	32740	36299	41599	
1724	0	32902	32065	32787	35263	35011	
1725	0	32992	34050	32809	34726	39111	
1726	0	32748	34693	32765	33708	35013	
1727	0	32523	33625	32748	34498	29458	
1728	0	32580	32973	32731	35840	27555	
1729	0	32608	32419	32757	36895	36602	
1730	0	32814	32374	32702	38368	39648	
1731	0	32858	31905	32681	33888	41892	
1732	0	33020	31487	32686	29478	39257	
1733	0	33368	31099	32656	28743	23485	
1734	0	33276	29443	32748	30468	13002	
1735	0	33212	28397	32853	30661	14311	
1736	0	33296	29746	32868	29595	30380	
1737	0	33024	31470	32887	32214	41425	
1738	0	32928	31938	32847	35156	41183	
1739	0	32992	32483	32816	36423	36109	
1740	0	32795	33664	32754	34982	22704	
1741	0	32346	34020	32712	29658	20379	
1742	0	32000	34328	32681	23770	30013	
1743	0	32080	33437	32767	23677	41030	
1744	0	32390	32367	32824	28290	36324	
1745	0	32711	31328	32788	32322	34100	
1746	0	32965	31160	32656	37670	46296	
1747	0	32986	32542	32592	42386	41712	
1748	0	32731	33520	32521	43298	26451	
1749	0	32464	33934	32532	39800	20117	
1750	0	32608	33999	32530	35219	39177	
1751	0	32746	33794	32587	31072	47932	
1752	0	33061	34053	32583	27822	41371	
1753	0	33124	34960	32544	26015	37210	
1754	0	33000	35428	32634	26940	15443	
1755	0	32838	35699	32640	29613	4698	
1756	0	32640	35470	32670	32880	14912	
1757	0	32797	34183	32648	34634	31016	
1758	0	32653	32100	32616	34543	42299	
1759	0	32797	29438	32838	32704	50288	
1760	0	32820	27165	32869	31728	51241	
1761	0	32848	27108	32860	33773	37679	
1762	0	33032	29102	32774	36133	24265	
1763	0	32723	31651	32761	35975	26487	
1764	0	32572	34066	32698	33432	38620	
1765	0	32654	37072	32728	32013	36212	
1766	0	32995	38994	32756	31750	24354	
1767	0	32979	39431	32711	32995	22261	
1768	0	32753	38834	32690	33595	32485	
1769	0	32710	37465	32803	31961	32523	
1770	0	32789	35909	32916	31479	32839	
1771	0	32841	33435	32875	31007	35734	
1772	0	32864	31154	32838	29319	33296	
1773	0	32656	28640	32861	30111	27075	
1774	0	32570	26687	32842	31964	33661	
1775	0	32658	25296	32723	35155	43237	
1776	0	32900	25631	32746	35003	47512	
1777	0	33102	27531	32775	32992	48362	
1778	0	32932	30136	32728	30830	37932	
1779	0	32641	32792	32694	31376	18744	
1780	0	32421	34067	32635	33741	18052	
1781	0	32442	35006	32732	33751	34480	
1782	0	32647	35256	32711	33531	31935	
1783	0	32793	34928	32359	32799	30293	
1784	0	32649	34223	32343	32514	29282	
1785	0	32402	33452	32668	30853	31204	
1786	0	32297	32790	32763	30714	33698	
1787	0	32379	32549	32844	32003	30656	
1788	0	32484	33024	32760	34160	36322	
1789	0	32464	33497	32662	36419	43989	
1790	0	32920	33483	32700	39515	39424	
1791	0	32932	33698	32656	40525	31905	
1792	0	32912	33391	32795	38583	31205	
1793	0	32956	33107	32792	34052	34002	
1794	0	33070	33061	32865	28568	35705	
1795	0	33097	34408	32834	25613	26397	
1796	0	32844	35119	32839	26148	19531	
1797	0	32402	35040	32746	26848	21174	
1798	0	32438	34374	32694	28651	27795	
1799	0	32848	32600	32674	31424	27046	
1800	0	33036	28948	32792	33210	29693	
1801	0	33060	26841	32804	32930	40000	
1802	0	33183	26701	32821	33871	40181	
1803	0	32946	28743	32762	35896	43252	
1804	0	33052	31023	32820	37136	45152	
1805	0	32984	32627	32729	37888	33736	
1806	0	32886	33275	32731	37286	24957	
1807	0	32764	33724	32640	35074	42175	
1808	0	32633	35368	32717	31380	41515	
1809	0	32692	36834	32707	29149	27426	
1810	0	32652	37407	32711	29786	15851	
1811	0	32752	35143	32684	31893	17537	
1812	0	32716	31781	32652	33080	37615	
1813	0	32757	29554	32666	31103	44679	
1814	0	32944	30192	32692	30027	38244	
1815	0	32896	32434	32650	29665	31410	
1816	0	32716	34447	32639	30215	29479	
1817	0	32920	34424	32736	34216	26401	
1818	0	33005	33120	32620	37776	19098	
1819	0	32985	31042	32565	36676	27081	
1820	0	32826	29606	32483	34538	37881	
1821	0	32637	29868	32537	32451	42425	
1822	0	32661	30724	32528	31716	42040	
1823	0	32556	29971	32385	30650	36520	
1824	0	32664	29424	32416	29287	37351	
1825	0	32809	29501	32476	31161	33980	
1826	0	32775	30415	32539	33817	34678	
1827	0	32832	32283	32564	36497	30362	
1828	0	32688	34346	32729	37443	26580	
1829	0	32567	34521	32679	35891	25278	
1830	0	32669	34696	32680	34103	33623	
1831	0	32857	34625	32706	33762	35234	
1832	0	32976	34136	32698	29473	26723	
1833	0	32988	32910	32652	26231	28950	
1834	0	32796	32454	32679	27231	31966	
1835	0	32688	32639	32626	31087	35445	
1836	0	32758	33339	32601	32411	39447	
1837	0	32789	34368	32655	33166	35335	
1838	0	32688	35369	32653	33577	36151	
1839	0	32673	36807	32681	34197	36646	
1840	0	32656	37190	32792	32695	33935	
1841	0	32775	37028	32740	30907	29158	
1842	0	32815	36359	32735	28888	36503	
1843	0	32409	35223	32710	28799	41938	
1844	0	32268	34646	32696	32398	43067	
1845	0	32221	34016	32640	37696	36211	
1846	0	32512	33220	32702	41852	22012	
1847	0	32861	32687	32775	41095	22509	
1848	0	33152	31365	32825	36070	21536	
1849	0	33256	29319	32794	32154	25188	
1850	0	33211	27684	32805	30342	29590	
1851	0	33236	25588	32817	30374	36359	
1852	0	33038	24613	32829	30480	34439	
1853	0	32862	26712	32865	30507	29766	
1854	0	32584	29325	32803	30495	29552	
1855	0	32536	31392	32786	35055	34434	
1856	0	32589	34086	32685	36687	39300	
1857	0	32802	35103	32758	33477	39211	
1858	0	32678	36349	32631	29762	43962	
1859	0	32680	35783	32560	31967	46599	
1860	0	32753	33189	32595	36110	44028	
1861	0	32720	31361	32664	35927	27693	
1862	0	32700	31019	32751	33085	16506	
1863	0	32670	32566	32772	30869	13158	
1864	0	32716	34275	32784	29713	6231	
1865	0	32648	36040	32837	30716	24877	
1866	0	32550	36088	32723	32015	39984	
1867	0	32597	35191	32786	31018	42241	
1868	0	32857	34097	32805	29726	37221	
1869	0	32845	33410	32837	28247	38215	
1870	0	32858	33771	32741	29767	42312	
1871	0	32928	34567	32719	31419	44857	
1872	0	32966	34277	32763	33837	41968	
1873	0	32876	32925	32834	35376	30108	
1874	0	32925	30397	32772	37536	21757	
1875	0	33236	27591	32771	37595	27743	
1876	0	33346	26534	32748	35613	30941	
1877	0	33184	28643	32635	32097	30047	
1878	0	32915	32029	32610	28799	29309	
1879	0	32905	34591	32627	31337	28145	
1880	0	32771	35544	32643	36918	29200	
1881	0	32640	34566	32626	39005	38726	
1882	0	32525	32607	32531	35175	43501	
1883	0	32730	33205	32630	31712	34390	
1884	0	33156	35880	32700	28450	33180	
1885	0	33146	37414	32758	27130	36615	
1886	0	33190	35603	32775	28403	37242	
1887	0	33464	32339	32740	37383	38678	
1888	0	33498	28102	32800	43998	36532	
1889	0	33309	24589	32795	42430	35066	
1890	0	33024	23452	32709	38307	36641	
1891	0	32941	24813	32687	27854	34377	
1892	0	32911	28154	32699	23456	21748	
1893	0	32576	31879	32848	24834	15723	
1894	0	32130	34486	32868	25430	12532	
1895	0	31904	36117	32888	27866	35328	
1896	0	31818	37767	32913	29478	49519	
1897	0	31776	39262	32973	30998	33484	
1898	0	31880	39332	32961	34911	26829	
1899	0	32051	38326	32993	37247	32750	
1900	0	32260	36387	32997	36009	35975	
1901	0	32332	32148	32936	34637	39321	
1902	0	32493	29978	32839	34230	48719	
1903	0	32592	30255	32797	32408	36759	
1904	0	32517	31510	32955	32249	32111	
1905	0	32457	32166	32962	31544	22952	
1906	0	32390	31687	32848	31491	14562	
1907	0	32397	29579	32677	32280	23525	
1908	0	32626	28669	32606	32337	34132	
1909	0	32856	29560	32626	34342	39802	
1910	0	33004	31003	32758	33463	41725	
1911	0	33010	31499	32775	31250	31414	
1912	0	33045	32317	32706	31653	23072	
1913	0	32993	32870	32469	33983	20651	
1914	0	33116	33614	32336	35335	33565	
1915	0	33142	34898	32505	36006	38645	
1916	0	33053	35924	32568	35234	26970	
1917	0	33032	35760	32545	33722	24378	
1918	0	32857	36298	32560	32564	35257	
1919	0	32520	36231	32603	29969	37791	
1920	0	32676	35497	32762	29394	38212	
1921	0	32717	35128	32860	30236	41706	
1922	0	32682	35952	32816	30896	51207	
1923	0	32774	36745	32560	35251	55394	
1924	0	32586	37255	32428	39465	46087	
1925	0	32626	36358	32721	37351	38037	
1926	0	32642	33650	32797	32978	23523	
1927	0	32788	30225	32820	30838	10323	
1928	0	32898	28674	32822	30757	15437	
1929	0	33072	28432	32687	31102	28832	
1930	0	33164	28875	32695	31545	30419	
1931	0	33094	30128	32642	31746	23265	
1932	0	32952	30614	32627	33287	24639	
1933	0	32848	29686	32809	36010	28431	
1934	0	32852	29066	32807	36989	26216	
1935	0	32836	29183	32710	36487	32656	
1936	0	32796	29066	32741	34335	35478	
1937	0	32744	29455	32747	30967	36483	
1938	0	32918	30198	32848	29385	42860	
1939	0	33004	31160	32869	27044	47540	
1940	0	32896	33134	32832	28536	49700	
1941	0	32768	35008	32726	31440	55239	
1942	0	32782	35517	32647	33892	41104	
1943	0	32912	35180	32619	35936	25378	
1944	0	33177	34043	32639	35703	25595	
1945	0	32864	32896	32715	33422	12030	
1946	0	32628	33508	32784	29383	8070	
1947	0	32454	34443	32770	28229	29595	
1948	0	32418	34536	32783	28685	34559	
1949	0	32472	35035	32877	31273	24416	
1950	0	32787	34823	32786	33081	30258	
1951	0	32809	35086	32671	35384	36638	
1952	0	32853	34668	32675	35293	41016	
1953	0	32693	33539	32607	36298	38915	
1954	0	32616	31044	32558	37716	34144	
1955	0	32630	29756	32609	38371	31215	
1956	0	32623	30239	32692	38983	33044	
1957	0	32566	32639	32818	38388	37930	
1958	0	32357	36713	32832	36434	36374	
1959	0	32320	39306	32912	32317	32916	
1960	0	32456	38394	32850	28028	37527	
1961	0	32720	35354	32824	26724	44931	
1962	0	33024	30445	32775	26015	46048	
1963	0	33530	25716	32699	24849	35944	
1964	0	33592	22499	32682	28068	29926	
1965	0	33440	20902	32684	30752	17690	
1966	0	33370	22898	32646	32431	12874	
1967	0	33226	27204	32669	33118	21496	
1968	0	32956	31214	32788	30578	34350	
1969	0	32832	34178	32759	28456	41991	
1970	0	32754	36475	32626	29514	39572	
1971	0	32659	38352	32704	30275	35494	
1972	0	32462	38668	32746	33202	36871	
1973	0	32508	38841	32720	35034	36902	
1974	0	32582	38159	32690	37816	29507	
1975	0	32616	36204	32660	40064	17272	
1976	0	32553	35013	32691	39693	14360	
1977	0	32568	32529	32628	37309	17077	
1978	0	32624	28229	32520	32137	28869	
1979	0	32660	25005	32548	26472	34776	
1980	0	32860	25394	32621	25695	37921	
1981	0	32975	28102	32762	29443	38274	
1982	0	33032	31318	32861	33037	40268	
1983	0	32867	34616	32833	35011	43166	
1984	0	32706	35749	32824	35430	43492	
1985	0	32604	35494	32805	37140	39017	
1986	0	32586	35002	32759	38624	34962	
1987	0	32654	33967	32822	39623	31046	
1988	0	32837	32979	32803	35846	31764	
1989	0	32888	33591	32746	31751	33242	
1990	0	32980	34430	32731	30578	42603	
1991	0	32978	33705	32740	30128	46705	
1992	0	32775	32723	32749	30542	47797	
1993	0	32634	32192	32789	29070	44770	
1994	0	32832	32688	32809	29174	17625	
1995	0	32556	33432	32736	32104	18974	
1996	0	32497	34656	32792	34509	23972	
1997	0	32596	35026	32740	34359	16223	
1998	0	32567	35002	32731	32416	27518	
1999	0	32642	34712	32746	33253	36218	
2000	0	32706	33658	32740	31649	37081	
2001	0	32909	31871	32722	29572	34015	
2002	0	32851	30347	32680	28559	33471	
2003	0	32912	29960	32602	30916	29820	
2004	0	32914	31082	32614	32664	15306	
2005	0	33024	32941	32754	33821	18011	
2006	0	32945	34197	32885	34972	19975	
2007	0	32838	34531	32742	36280	32740	
2008	0	32551	34770	32656	38406	41097	
2009	0	32452	34205	32662	38073	46726	
2010	0	32419	34118	32839	35835	51719	
2011	0	32585	33991	32805	33090	45869	
2012	0	32812	32121	32797	29618	31480	
2013	0	33048	31855	32839	28775	26031	
2014	0	33072	32839	32952	27263	21746	
2015	0	32631	32306	33004	27413	29371	
2016	0	32484	30224	32760	30814	47672	
2017	0	32624	28694	32321	32747	51617	
2018	0	32896	27361	32092	34365	38488	
2019	0	33152	26461	32368	35896	30705	
2020	0	33307	28414	32602	38010	18721	
2021	0	33084	30814	32719	36871	23125	
2022	0	33040	32558	32816	35353	34213	
2023	0	32847	33131	32775	31276	35236	
2024	0	32610	33301	32705	29237	37503	
2025	0	32424	34646	32569	28704	38631	
2026	0	32435	36248	32467	28697	33851	
2027	0	32452	37176	32660	29655	18262	
2028	0	32404	38386	32797	31484	15073	
2029	0	32536	39179	32939	34653	25212	
2030	0	32546	39672	32926	36525	37766	
2031	0	32698	38195	32868	36771	42615	
2032	0	32672	36594	32870	38202	42424	
2033	0	32772	33968	32881	39804	46226	
2034	0	32804	31442	32835	38264	34754	
2035	0	33090	29258	32696	31842	23557	
2036	0	33412	27070	32668	27749	15108	
2037	0	33496	24625	32805	25825	26532	
2038	0	33560	22565	32694	26441	32678	
2039	0	33163	23339	32682	28475	30347	
2040	0	33232	25152	32669	32260	28859	
2041	0	33136	27524	32557	35635	38962	
2042	0	33069	29998	32569	36743	45091	
2043	0	32923	31375	32654	34960	42212	
2044	0	32708	32583	32756	31788	33462	
2045	0	32531	34951	32710	30019	33083	
2046	0	32384	37103	32696	29939	40319	
2047	0	32532	38070	32829	30790	36026	
2048	0	32581	38567	32883	30919	28206	
2049	0	32384	39131	32826	31700	40247	
2050	0	32400	37732	32860	33332	33222	
2051	0	32612	35471	32839	33383	28464	
2052	0	32578	33575	32800	34642	30588	
2053	0	32494	31906	32857	35167	29623	
2054	0	32512	31115	32898	34994	18953	
2055	0	32507	30739	32770	33490	16448	
2056	0	32365	31501	32637	29975	21222	
2057	0	32320	32648	32600	29532	33048	
2058	0	32528	33088	32520	31763	51736	
2059	0	32510	33003	32581	34843	53191	
2060	0	32896	32898	32590	36071	48447	
2061	0	32996	33496	32578	34164	32737	
2062	0	32952	33174	32572	32845	15216	
2063	0	32902	34126	32662	34726	20662	
2064	0	32832	35663	32656	35289	24640	
2065	0	32976	37035	32676	33726	26479	
2066	0	32848	36680	32644	30858	35031	
2067	0	32796	34703	32736	28802	38066	
2068	0	32772	32173	32709	32096	37475	
2069	0	32980	29841	32603	36276	39938	
2070	0	33051	29547	32791	35203	39079	
2071	0	33124	30452	32884	36006	40306	
2072	0	33048	30465	32655	34271	39069	
2073	0	32903	29703	32605	31617	33991	
2074	0	33063	29346	32701	28024	29165	
2075	0	33026	30303	32656	28861	24894	
2076	0	32852	31579	32624	30863	18951	
2077	0	32736	33228	32675	32751	22202	
2078	0	32542	34426	32744	34586	37752	
2079	0	32453	34502	32735	35205	46724	
2080	0	32562	33617	32771	33693	47468	
2081	0	32802	32897	32567	32791	42188	
2082	0	32760	31470	32693	30836	34033	
2083	0	32698	29562	32797	30553	21888	
2084	0	32722	28588	32751	31839	20205	
2085	0	32642	29753	32672	31801	25223	
2086	0	32634	32337	32698	31918	29369	
2087	0	32513	34591	32794	31203	34872	
2088	0	32568	35007	32774	29739	35152	
2089	0	32812	34009	32741	31334	31367	
2090	0	32868	32351	32676	33923	25056	
2091	0	33200	30850	32713	36751	21861	
2092	0	33274	30894	32736	35261	27247	
2093	0	32952	33218	32677	33185	33827	
2094	0	32649	35516	32658	32613	45965	
2095	0	32596	37836	32744	34326	53035	
2096	0	32521	39309	32775	38348	57769	
2097	0	32644	37527	32839	36395	52373	
2098	0	32448	34338	32762	32276	36691	
2099	0	32789	31187	32761	31675	30711	
2100	0	33275	28904	32677	33880	15536	
2101	0	33307	27288	32675	34453	14309	
2102	0	32836	28042	32736	31476	20308	
2103	0	32440	29669	32775	30265	30775	
2104	0	32592	31467	32662	30739	32016	
2105	0	32648	33056	32771	31088	19634	
2106	0	32626	33503	32805	32473	13139	
2107	0	32632	33393	32845	36008	26524	
2108	0	32756	32763	32663	36798	33869	
2109	0	32736	32018	32611	34463	38919	
2110	0	32673	32239	32789	30215	39973	
2111	0	32850	32425	32815	28694	33410	
2112	0	32856	32771	32750	28762	36155	
2113	0	32950	34348	32801	31548	41842	
2114	0	33019	36171	32752	32471	40295	
2115	0	32834	37760	32775	32626	42192	
2116	0	32579	36534	32739	33185	40711	
2117	0	32648	34867	32651	33108	30962	
2118	0	32630	33879	32645	32257	27605	
2119	0	32784	32839	32459	30741	31285	
2120	0	32773	31214	32569	28598	31444	
2121	0	32620	31410	32731	33151	27408	
2122	0	32744	30136	32918	34722	37373	
2123	0	32482	29571	32832	34603	39407	
2124	0	32424	30384	32726	34181	40413	
2125	0	32592	30775	32646	33453	41799	
2126	0	32880	30723	32694	31874	30928	
2127	0	33100	29307	32799	30308	25596	
2128	0	32893	28274	32821	31936	22670	
2129	0	32737	28577	32855	35289	30707	
2130	0	32860	28845	32832	39077	38424	
2131	0	33156	30213	32747	40475	37639	
2132	0	33298	31910	32774	36228	36152	
2133	0	33160	33904	32827	27910	20389	
2134	0	33240	35000	32784	24082	21522	
2135	0	33047	35564	32807	25772	31125	
2136	0	32628	35972	32839	28696	27444	
2137	0	32203	35748	32704	34285	25916	
2138	0	32360	33867	32475	37699	30420	
2139	0	32496	31847	32259	36391	35108	
2140	0	32514	31425	32297	33927	34613	
2141	0	32509	31516	32653	32683	39198	
2142	0	32858	31236	32738	31060	35178	
2143	0	32968	30741	32691	30954	23950	
2144	0	32741	31356	32769	31623	26941	
2145	0	32865	33776	32825	30243	37558	
2146	0	32918	36857	32883	30776	43600	
2147	0	32909	37925	32861	32162	42446	
2148	0	32662	38283	32890	33444	36800	
2149	0	32455	37543	32908	35521	35861	
2150	0	32570	36449	32855	38525	37623	
2151	0	32762	34531	32873	38237	38067	
2152	0	32850	32630	32895	35655	40573	
2153	0	32690	31256	32879	31918	32696	
2154	0	32694	30534	32862	31047	33622	
2155	0	32805	30177	32889	30390	35508	
2156	0	32574	30676	32648	30660	23329	
2157	0	32583	32665	32617	32416	23679	
2158	0	32592	34401	32669	33911	30601	
2159	0	32813	34269	32704	33340	29570	
2160	0	32605	33846	32706	30991	24013	
2161	0	32696	32495	32664	32144	32948	
2162	0	32957	30880	32653	33142	34999	
2163	0	33124	29408	32679	31998	27122	
2164	0	33168	29019	32667	31761	34031	
2165	0	33193	29965	32728	34103	34912	
2166	0	33051	31687	32717	35431	35885	
2167	0	32924	33731	32775	35527	26151	
2168	0	32827	35228	32851	33440	27335	
2169	0	32896	34712	32868	32090	32576	
2170	0	32608	33708	32879	28979	35098	
2171	0	32458	32133	32851	27687	33002	
2172	0	32569	31450	32852	26942	35406	
2173	0	32634	31103	32651	27602	37482	
2174	0	32549	31832	32647	31910	38647	
2175	0	32598	33186	32644	38727	33656	
2176	0	32500	34617	32788	43745	25607	
2177	0	32313	35280	32760	46037	31612	
2178	0	32513	35859	32757	44099	40208	
2179	0	32910	35282	32693	36763	42130	
2180	0	32919	33700	32706	28672	34311	
2181	0	33036	31623	32621	24111	31237	
2182	0	33097	30971	32672	23583	31071	
2183	0	32997	30886	32769	25246	31612	
2184	0	33028	30070	32710	27024	23016	
2185	0	33227	29023	32673	27842	23159	
2186	0	33232	28690	32775	29087	22289	
2187	0	33202	29363	32853	30986	19907	
2188	0	33172	30802	32812	33053	31864	
2189	0	32902	32676	32604	35128	44126	
2190	0	32676	34147	32532	38547	45343	
2191	0	32559	35161	32612	40660	38373	
2192	0	32495	35129	32775	39879	35455	
2193	0	32458	34426	32805	33569	36812	
2194	0	32541	33655	32796	29206	42375	
2195	0	32600	33142	32775	31422	47214	
2196	0	32793	32242	32860	32229	37913	
2197	0	32918	31528	32756	30979	15196	
2198	0	32941	30116	32602	31161	17952	
2199	0	32824	31016	32598	31269	30639	
2200	0	32728	33366	32708	31478	39324	
2201	0	32624	35575	32766	31021	42465	
2202	0	32410	36008	32785	30229	34776	
2203	0	32461	34917	32809	28213	29551	
2204	0	32584	31972	32884	29822	30458	
2205	0	32720	29066	32863	32597	30554	
2206	0	32902	28192	32772	34771	33897	
2207	0	32873	29109	32685	37529	33099	
2208	0	32921	30423	32677	37306	33714	
2209	0	33148	30579	32687	35388	28311	
2210	0	32904	30125	32632	35051	32047	
2211	0	32772	30709	32565	35199	30499	
2212	0	32756	31934	32555	35109	34982	
2213	0	32789	32839	32574	34493	30744	
2214	0	32907	33935	32442	33269	30205	
2215	0	32792	34631	32459	33081	39568	
2216	0	32755	35047	32682	32646	34861	
2217	0	32698	35358	32738	32124	28477	
2218	0	32740	35399	32797	30473	23423	
2219	0	32688	35880	32839	30676	29107	
2220	0	32694	35023	32899	30727	36717	
2221	0	32772	34125	32888	31347	34609	
2222	0	32642	33493	32792	31466	30425	
2223	0	32742	33154	32767	32187	31012	
2224	0	32744	33001	32734	32612	40748	
2225	0	32760	33194	32670	33158	39894	
2226	0	32718	33954	32672	33308	25624	
2227	0	32570	34683	32882	33182	23203	
2228	0	32740	35975	32992	32846	27400	
2229	0	32832	36168	32940	32193	37865	
2230	0	32848	35213	32992	32533	38880	
2231	0	32513	33043	32919	33755	33691	
2232	0	32722	31453	32413	34543	33943	
2233	0	32903	29465	32417	34457	34912	
2234	0	32955	28134	32565	34594	42599	
2235	0	32980	28537	32483	34015	41427	
2236	0	33024	29622	32487	34241	39766	
2237	0	32974	31089	32602	33108	29153	
2238	0	32888	32390	32557	32121	15571	
2239	0	32603	33136	32409	32742	28893	
2240	0	32462	33554	32330	32161	41718	
2241	0	32361	34536	32337	31314	43347	
2242	0	32509	34666	32218	30619	27128	
2243	0	32748	34872	32281	28386	10168	
2244	0	32845	34468	32445	27915	17979	
2245	0	32750	34230	32704	30057	31406	
2246	0	33040	33087	32918	33263	36324	
2247	0	32852	30562	32986	35719	35083	
2248	0	32757	27500	33006	38225	35621	
2249	0	32775	26213	33078	38637	33183	
2250	0	32933	27414	32997	36180	34223	
2251	0	32775	30244	32775	33107	29351	
2252	0	32770	33177	32711	31704	35598	
2253	0	32746	34244	32703	32221	43767	
2254	0	32688	34014	32755	32226	46057	
2255	0	32728	33716	32838	29983	41820	
2256	0	32940	33563	32878	26454	32327	
2257	0	32905	33589	32930	28939	26928	
2258	0	32775	33048	32882	31771	28651	
2259	0	32830	33216	32826	34473	35494	
2260	0	32860	34439	32861	36963	36854	
2261	0	32820	37417	32861	37484	37117	
2262	0	32888	39614	32892	35104	43568	
2263	0	32848	38808	32819	30755	40228	
2264	0	32850	35887	32726	29115	23296	
2265	0	32925	31542	32733	30669	14848	
2266	0	32964	28100	32580	31121	23626	
2267	0	32942	27762	32570	30525	29259	
2268	0	32775	28602	32483	30820	22167	
2269	0	32530	29383	32430	32528	18242	
2270	0	32434	30243	32616	34499	23758	
2271	0	32382	31777	32772	36018	32196	
2272	0	32548	32915	32726	36577	37288	
2273	0	32613	33967	32685	35027	38243	
2274	0	32795	33399	32755	34211	37343	
2275	0	32969	31314	32733	33403	43249	
2276	0	33143	28176	32731	32677	45995	
2277	0	33128	28020	32551	35115	41671	
2278	0	33009	29291	32588	34950	36263	
2279	0	33017	31768	32667	33433	34363	
2280	0	32888	33533	32647	31259	35940	
2281	0	32688	34682	32627	28718	31894	
2282	0	32592	35622	32605	27405	27644	
2283	0	32603	36474	32600	29548	42748	
2284	0	32590	36064	32623	32372	47219	
2285	0	32667	34140	32648	32652	36002	
2286	0	32584	33133	32725	33138	18754	
2287	0	32573	33019	32835	36486	20309	
2288	0	32704	33379	32825	34861	21249	
2289	0	32646	33733	32805	32029	17376	
2290	0	32640	34388	32801	30184	29596	
2291	0	32600	34874	32716	30541	41344	
2292	0	32624	34098	32705	31771	46402	
2293	0	32793	32639	32687	33393	42713	
2294	0	32937	30773	32556	32896	37245	
2295	0	33258	28536	32552	33792	18460	
2296	0	33370	28149	32528	34873	9788	
2297	0	33136	28610	32625	35682	25528	
2298	0	33005	29432	32621	34932	39943	
2299	0	32704	30551	32744	34107	46982	
2300	0	32624	32101	32708	33250	51055	
2301	0	32758	33808	32681	34306	41960	
2302	0	32848	34610	32624	32369	20882	
2303	0	32701	35373	32723	30431	16502	
2304	0	32549	36311	32825	29191	26566	
2305	0	32512	36338	32804	28434	23034	
2306	0	32356	36198	32787	29492	27381	
2307	0	32512	35796	32784	33799	34642	
2308	0	32518	34075	32744	37411	39286	
2309	0	32488	31885	32699	38052	32560	
2310	0	32597	30859	32720	35904	32067	
2311	0	32704	31057	32745	32754	37278	
2312	0	32862	32261	32664	32304	41159	
2313	0	32914	33282	32506	32594	40205	
2314	0	32786	33126	32555	32359	40147	
2315	0	32800	32411	32637	30711	39693	
2316	0	32876	31563	32608	31405	39923	
2317	0	32981	32377	32659	32445	34419	
2318	0	32972	33029	32613	33837	30131	
2319	0	33024	32281	32421	34256	35133	
2320	0	32903	31572	32581	31216	40176	
2321	0	32920	30864	32645	27900	28924	
2322	0	32997	31126	32707	28215	24618	
2323	0	32900	32611	32775	30594	28188	
2324	0	32709	34208	32813	33046	31813	
2325	0	32548	35832	32869	35580	23546	
2326	0	32480	37407	32845	37972	31627	
2327	0	32500	39088	32931	38181	30093	
2328	0	32680	38953	32962	37123	28877	
2329	0	32725	36605	32792	35750	36306	
2330	0	32805	33059	32750	35335	38521	
2331	0	32888	29789	32664	34653	29828	
2332	0	33017	27550	32711	33195	27931	
2333	0	33078	27506	32788	31079	26412	
2334	0	32960	28389	32794	27294	19796	
2335	0	32796	29473	32752	26132	31306	
2336	0	32676	30087	32818	25504	40141	
2337	0	32638	29515	32747	27397	39657	
2338	0	32793	29200	32843	32737	35891	
2339	0	32868	28601	32892	35573	32506	
2340	0	32898	28264	32877	35562	36638	
2341	0	33026	29866	32873	32803	39411	
2342	0	32896	33066	32771	31807	39126	
2343	0	32757	35769	32770	33087	35151	
2344	0	32648	35779	32760	34126	35351	
2345	0	32717	33827	32701	33570	30705	
2346	0	32890	31919	32691	34228	36655	
2347	0	32976	30594	32607	33521	35819	
2348	0	32990	30824	32577	31400	30408	
2349	0	33132	31756	32610	30056	18246	
2350	0	32864	32872	32647	29179	20525	
2351	0	32764	33679	32687	29725	32487	
2352	0	32682	35389	32720	31786	32934	
2353	0	32336	36267	32564	33322	31859	
2354	0	32240	36462	32447	35726	35390	
2355	0	32377	36653	32516	38586	32696	
2356	0	32646	34887	32697	39288	31555	
2357	0	32816	33728	32805	39085	35498	
2358	0	32800	33144	32749	36220	39699	
2359	0	32795	31488	32741	30839	39766	
2360	0	32832	30495	32658	28818	38534	
2361	0	32756	30802	32713	27440	38215	
2362	0	32869	29665	32827	28853	37293	
2363	0	32754	29530	32792	31442	31049	
2364	0	32834	30781	32743	34731	29039	
2365	0	32863	31903	32775	35405	30953	
2366	0	32873	33095	32757	34627	29731	
2367	0	32868	33655	32841	32631	30317	
2368	0	32930	34511	32785	30623	22245	
2369	0	32976	34330	32800	31143	23303	
2370	0	32914	33966	32827	32526	21669	
2371	0	32701	33464	32792	34143	30558	
2372	0	32642	34043	32806	33721	38423	
2373	0	32612	34382	32667	30970	34242	
2374	0	32688	34379	32725	30835	30201	
2375	0	32557	33415	32821	30837	32199	
2376	0	32466	33192	32808	32340	40312	
2377	0	32502	33093	32774	34619	42875	
2378	0	32730	33131	32727	34951	38983	
2379	0	32740	32927	32711	34958	35898	
2380	0	32792	32541	32806	35299	38407	
2381	0	32904	31673	32805	35359	36853	
2382	0	32929	31445	32757	35011	38279	
2383	0	32772	31440	32710	34023	30574	
2384	0	32839	31364	32797	32597	21891	
2385	0	32829	31830	32751	30703	24441	
2386	0	32742	32137	32807	28717	31135	
2387	0	32720	32422	32825	28587	35695	
2388	0	32760	32679	32762	28728	40209	
2389	0	32792	33586	32726	28962	38767	
2390	0	32665	34795	32792	30705	39363	
2391	0	32582	36755	32770	34372	40469	
2392	0	32472	36206	32732	38118	30379	
2393	0	32618	34983	32732	40873	27704	
2394	0	32744	33307	32731	41115	30995	
2395	0	32888	31908	32796	36726	27124	
2396	0	32873	31664	32738	29472	23982	
2397	0	33019	32377	32720	25167	22810	
2398	0	33153	33535	32833	24809	24207	
2399	0	33151	34550	32807	29819	32896	
2400	0	32940	33344	32792	36126	28028	
2401	0	33109	30762	32863	37920	38788	
2402	0	33099	29241	32816	35248	46643	
2403	0	32957	26844	32805	30898	45329	
2404	0	32848	25744	32704	29216	37470	
2405	0	32673	25969	32756	30231	21974	
2406	0	32646	28295	32711	31175	21573	
2407	0	32631	32263	32671	30249	22499	
2408	0	32354	37208	32748	31224	33992	
2409	0	32358	39338	32743	33778	37750	
2410	0	32476	39698	32823	36191	38584	
2411	0	32645	38001	32731	37863	33364	
2412	0	32760	34595	32684	36994	37861	
2413	0	32738	30977	32647	34781	35278	
2414	0	32918	29634	32582	30581	37359	
2415	0	33164	29266	32557	28343	38535	
2416	0	33037	29969	32523	29183	35055	
2417	0	32735	31290	32555	32891	35119	
2418	0	32744	32023	32460	34203	27828	
2419	0	32738	31795	32568	34459	19997	
2420	0	32677	32553	32613	34111	31235	
2421	0	32845	33741	32578	33707	23903	
2422	0	33048	34256	32599	32455	22535	
2423	0	32656	34107	32728	31589	23727	
2424	0	32410	33859	32690	33783	33631	
2425	0	32548	32156	32817	34837	40374	
2426	0	32720	30306	32823	33005	40295	
2427	0	32832	29341	32797	30560	41839	
2428	0	33146	29673	32666	30162	43303	
2429	0	33121	31773	32613	31221	40616	
2430	0	32730	33448	32651	32143	32944	
2431	0	32749	34767	32704	33742	28370	
2432	0	32775	34982	32768	32293	17723	
2433	0	32907	34091	32759	31414	19707	
2434	0	32824	32766	32800	31141	27272	
2435	0	32768	30939	32768	30408	41932	
2436	0	32598	28064	32732	30107	44728	
2437	0	32673	26936	32691	30227	41243	
2438	0	32676	28519	32635	31111	39481	
2439	0	32765	31226	32690	33544	40558	
2440	0	32840	32873	32658	36455	39053	
2441	0	32751	33613	32667	38939	31008	
2442	0	32756	34334	32699	40030	26579	
2443	0	32876	35098	32760	41581	35448	
2444	0	32811	36189	32799	39136	40038	
2445	0	32717	36269	32813	30864	38855	
2446	0	32701	35694	32754	25228	28425	
2447	0	32544	34600	32635	26288	7652	
2448	0	32628	33821	32641	30343	6658	
2449	0	32688	34036	32809	32927	19184	
2450	0	32577	34355	32919	32702	27277	
2451	0	32615	35066	32879	31485	31081	
2452	0	32544	34639	32839	31571	33519	
2453	0	32839	33626	32775	31218	35094	
2454	0	32902	32946	32764	31520	36294	
2455	0	32726	33088	32746	33893	46130	
2456	0	32709	33305	32653	35314	39192	
2457	0	32748	34307	32587	36423	38798	
2458	0	32996	35335	32461	34995	42210	
2459	0	32944	34806	32536	33717	38919	
2460	0	32748	32087	32613	31465	34220	
2461	0	32715	30190	32614	29220	33675	
2462	0	32834	28659	32662	29191	34498	
2463	0	32835	28695	32768	32027	38133	
2464	0	32773	29803	32754	32263	39079	
2465	0	32767	31593	32796	32131	36467	
2466	0	32690	34191	32694	32142	31527	
2467	0	32428	36180	32752	33741	26866	
2468	0	32428	37440	32772	36694	27570	
2469	0	32586	36646	32813	38386	31831	
2470	0	32800	33957	32808	37575	30426	
2471	0	32855	30356	32769	33853	31200	
2472	0	33096	28525	32730	31199	32195	
2473	0	33214	27864	32775	32506	30283	
2474	0	33362	27156	32775	30592	29090	
2475	0	33176	27719	32793	28608	28369	
2476	0	32914	30257	32741	29632	39914	
2477	0	32867	33599	32759	30108	40995	
2478	0	32820	36509	32848	30402	33900	
2479	0	32644	38046	32854	30960	27168	
2480	0	32476	37032	32855	32397	15780	
2481	0	32655	34864	32856	35349	18085	
2482	0	32710	31688	32803	36934	30048	
2483	0	32835	29918	32647	36512	35682	
2484	0	32816	29981	32534	35399	30925	
2485	0	32660	30023	32468	32876	34457	
2486	0	32582	30043	32497	30356	40510	
2487	0	32398	30661	32667	29338	36455	
2488	0	32553	31947	32731	28740	38951	
2489	0	32532	33437	32803	29548	48345	
2490	0	32539	34896	32748	33866	45138	
2491	0	32704	36262	32760	36840	37735	
2492	0	32644	36686	32793	38274	31970	
2493	0	32656	36849	32813	37523	25999	
2494	0	32880	35667	32807	31981	31727	
2495	0	32775	34793	32795	28559	29113	
2496	0	32978	32519	32788	28912	31656	
2497	0	33120	27545	32704	29107	37533	
2498	0	33424	24872	32699	28662	36713	
2499	0	33568	25776	32656	31021	26816	
2500	0	33315	29188	32573	34882	22352	
2501	0	33336	32211	32634	37442	29824	
2502	0	33186	34820	32654	37671	30465	
2503	0	33152	35663	32634	35531	19738	
2504	0	33124	33748	32626	29933	26269	
2505	0	33130	31716	32625	27113	23122	
2506	0	33121	30525	32612	29626	32954	
2507	0	33072	30986	32546	33998	44922	
2508	0	33069	32608	32440	39643	45005	
2509	0	32831	33664	32520	43233	48530	
2510	0	32784	34010	32654	41311	48527	
2511	0	33009	34616	32797	35844	37033	
2512	0	33082	35883	32873	30342	25418	
2513	0	32797	36866	32824	25529	11714	
2514	0	32619	36453	32805	23464	12154	
2515	0	32432	32936	32716	24992	30825	
2516	0	32449	28512	32636	29953	45520	
2517	0	32556	25368	32676	34471	47751	
2518	0	32648	24373	32658	36448	27792	
2519	0	32796	24731	32672	34894	19805	
2520	0	32740	27640	32668	32251	32147	
2521	0	32398	31113	32722	29847	34546	
2522	0	32136	33837	32861	28232	35429	
2523	0	31861	34884	32967	30892	41057	
2524	0	31742	35639	32900	35905	41159	
2525	0	31827	36813	32980	38608	34483	
2526	0	32000	38048	32968	38022	22074	
2527	0	32271	39731	32924	36800	20721	
2528	0	32468	39942	32775	33260	25488	
2529	0	32652	39252	32868	30486	39829	
2530	0	32734	37917	32836	29571	40263	
2531	0	32664	36304	32865	29729	33114	
2532	0	32606	33689	32805	30662	29795	
2533	0	32418	31158	32845	31511	34504	
2534	0	32302	27804	32775	31055	37705	
2535	0	32421	26223	32687	29986	37996	
2536	0	32839	28050	32707	29775	36901	
2537	0	33009	30578	32702	30486	38914	
2538	0	32898	32600	32662	36178	44250	
2539	0	33076	33511	32728	38612	43131	
2540	0	33351	33513	32635	36725	43495	
2541	0	33186	33324	32644	34648	32440	
2542	0	32976	32925	32589	34216	5825	
2543	0	32911	33199	32699	34989	6349	
2544	0	32800	32890	32709	34368	20775	
2545	0	32672	31786	32641	33439	29186	
2546	0	32585	31983	32581	32595	36104	
2547	0	32749	32742	32594	30803	42051	
2548	0	32989	34393	32530	28532	36214	
2549	0	33180	35002	32503	27618	34986	
2550	0	33064	35034	32575	28600	37073	
2551	0	32992	33999	32587	28783	40993	
2552	0	32912	34155	32569	31682	35063	
2553	0	32749	34573	32620	33371	37425	
2554	0	32664	33559	32646	34978	34750	
2555	0	32642	31281	32787	38768	28354	
2556	0	32771	29021	32835	41612	28012	
2557	0	32912	28162	32677	42949	31158	
2558	0	32944	27969	32646	39288	30336	
2559	0	32861	28878	32681	31999	32996	
2560	0	33104	30523	32736	26082	34151	
2561	0	33324	31349	32745	25212	33412	
2562	0	33223	32484	32792	26347	39176	
2563	0	32765	34991	32805	30407	42783	
2564	0	32560	37697	32845	34198	28600	
2565	0	32374	39046	32775	36730	25799	
2566	0	32388	39296	32832	36251	20309	
2567	0	32526	37534	32739	32966	24796	
2568	0	32681	34814	32750	30405	40736	
2569	0	33018	32400	32741	27360	36444	
2570	0	33312	29369	32748	27460	28438	
2571	0	33088	28094	32767	32090	27055	
2572	0	32793	28251	32793	37216	22905	
2573	0	32685	29019	32763	39147	23693	
2574	0	32533	29677	32733	38592	32551	
2575	0	32356	30336	32753	35394	39309	
2576	0	32530	29502	32787	31490	36871	
2577	0	32856	29203	32843	29857	35725	
2578	0	33092	30171	32738	29140	38897	
2579	0	32925	32138	32664	25872	40908	
2580	0	32928	34461	32656	24926	45063	
2581	0	32968	36635	32745	28514	46279	
2582	0	32920	37496	32741	33182	44528	
2583	0	32603	37413	32801	36464	45895	
2584	0	32529	34856	32824	36856	37528	
2585	0	32602	30670	32688	35625	10764	
2586	0	32930	26834	32603	32958	1033	
2587	0	33176	26075	32520	32486	8886	
2588	0	33222	27946	32459	32715	21950	
2589	0	32953	28995	32525	33085	28920	
2590	0	32840	30278	32644	33922	37520	
2591	0	32720	33525	32677	34522	37717	
2592	0	32653	37624	32673	33140	40556	
2593	0	32408	39797	32758	32129	37971	
2594	0	32386	39189	32775	32844	41906	
2595	0	32466	36000	32639	33083	42991	
2596	0	32592	31801	32515	33078	37279	
2597	0	32833	27718	32575	32921	31534	
2598	0	32884	26872	32640	34311	35956	
2599	0	32915	28555	32677	35312	42339	
2600	0	32944	30851	32717	31604	40171	
2601	0	32824	32349	32705	29729	36253	
2602	0	32681	32816	32690	30288	30547	
2603	0	32736	33426	32770	32132	28962	
2604	0	32832	33818	32769	34786	22659	
2605	0	33034	34242	32760	36474	14894	
2606	0	33000	35668	32789	35615	10746	
2607	0	32944	37039	32725	31783	17421	
2608	0	32872	37910	32772	31221	28242	
2609	0	32859	38278	32691	30564	42777	
2610	0	32569	37760	32647	30285	46173	
2611	0	32570	37424	32789	29908	42798	
2612	0	32548	36507	32835	30007	42054	
2613	0	32410	35304	32904	34024	46778	
2614	0	32430	32720	32802	38313	50770	
2615	0	32464	29400	32812	41177	42960	
2616	0	32840	27911	32688	36191	32228	
2617	0	32945	28626	32608	32985	17518	
2618	0	32844	30472	32617	32176	10597	
2619	0	32744	31341	32696	29501	18379	
2620	0	32468	30769	32748	30780	36642	
2621	0	32536	30026	32746	32775	45752	
2622	0	32805	29375	32602	32884	41893	
2623	0	33122	29318	32464	33122	30599	
2624	0	33137	29584	32176	31343	32245	
2625	0	32944	31032	32361	28039	38224	
2626	0	32868	31955	32553	27565	44969	
2627	0	32739	32391	32715	29981	40338	
2628	0	32825	32000	32807	31791	39042	
2629	0	32640	32106	32856	33864	24276	
2630	0	32718	31893	32886	37244	8782	
2631	0	32752	32667	32803	38068	9995	
2632	0	32853	34018	32898	38568	22672	
2633	0	32760	35387	32848	37392	41515	
2634	0	32699	36517	32756	34707	46047	
2635	0	32732	36186	32672	27875	39024	
2636	0	32912	35394	32778	24776	28348	
2637	0	32944	35445	32875	25250	13771	
2638	0	32932	34227	32807	28867	22834	
2639	0	32724	33179	32871	34356	35847	
2640	0	32800	32659	32820	39222	40953	
2641	0	32869	33129	32809	40642	34464	
2642	0	32718	32205	32677	39131	33970	
2643	0	32800	31425	32613	34628	39989	
2644	0	32736	31809	32677	31111	45483	
2645	0	32680	32231	32753	29543	41467	
2646	0	32815	33311	32770	30215	41915	
2647	0	32804	33197	32686	33265	35186	
2648	0	32816	30586	32711	34206	40690	
2649	0	32818	28011	32775	33654	40113	
2650	0	32918	27884	32806	30568	36043	
2651	0	33120	30022	32775	28196	25352	
2652	0	33184	32214	32693	27969	25542	
2653	0	32944	33894	32678	28190	20886	
2654	0	32605	32775	32766	26690	17851	
2655	0	32643	32183	32696	27457	18098	
2656	0	32640	33472	32772	33223	26998	
2657	0	32497	35515	32788	40967	27416	
2658	0	32417	37371	32725	44640	28289	
2659	0	32393	38091	32775	40191	27286	
2660	0	32556	36764	32717	34725	38936	
2661	0	32775	33675	32666	31237	46387	
2662	0	32912	31254	32753	29438	51160	
2663	0	32853	29513	32850	29070	44744	
2664	0	32878	28393	32861	30343	33114	
2665	0	33037	28818	32931	30291	23890	
2666	0	32957	29774	33007	30224	20271	
2667	0	32883	30651	32923	32247	25827	
2668	0	32786	31429	32711	34596	23446	
2669	0	32948	32878	32543	36392	24451	
2670	0	32976	33688	32453	34853	39220	
2671	0	33119	32973	32457	33978	45831	
2672	0	33110	31675	32339	33663	44539	
2673	0	33028	29566	32231	33307	40431	
2674	0	32843	28412	32614	31850	36746	
2675	0	32637	29428	32784	29402	34823	
2676	0	32606	30678	32677	28008	38464	
2677	0	32556	31545	32681	31963	36097	
2678	0	32600	32868	32726	36291	36136	
2679	0	32650	34992	32718	36342	34520	
2680	0	32545	36034	32720	35920	19371	
2681	0	32487	37047	32811	35048	23815	
2682	0	32510	36639	32849	35059	17769	
2683	0	32658	36210	32837	32068	28536	
2684	0	32904	35490	32832	28202	35636	
2685	0	32888	34708	32772	26598	37635	
2686	0	32704	33155	32824	28754	35683	
2687	0	32736	32160	32848	31556	38373	
2688	0	32704	32349	32797	33313	43605	
2689	0	32570	33287	32762	34238	33711	
2690	0	32474	33687	32813	35411	33381	
2691	0	32377	33317	32794	36487	29032	
2692	0	32590	32723	32832	34671	27388	
2693	0	32681	32495	32806	34247	32384	
2694	0	32832	32771	32819	35429	36331	
2695	0	32936	33117	32805	34650	23757	
2696	0	32892	34000	32797	32397	20584	
2697	0	33109	34887	32823	33107	26714	
2698	0	33013	36082	32817	31136	33677	
2699	0	33076	37254	32792	32026	40614	
2700	0	32784	37339	32713	32817	43719	
2701	0	32495	35316	32674	33514	31676	
2702	0	32354	32335	32656	35207	28797	
2703	0	32361	30127	32681	33597	28970	
2704	0	32637	29639	32646	29544	27203	
2705	0	32969	30872	32583	28183	38568	
2706	0	33042	30614	32740	28944	42050	
2707	0	33232	29191	32724	30575	45191	
2708	0	33116	27900	32719	30146	35406	
2709	0	32884	26672	32834	31850	28101	
2710	0	32722	26354	32877	32614	27404	
2711	0	32898	27219	32807	33633	25991	
2712	0	32928	29131	32775	33047	31865	
2713	0	32867	31030	32717	31927	26197	
2714	0	32812	32498	32729	32996	30907	
2715	0	32724	34168	32677	36423	31656	
2716	0	32510	35975	32775	38471	31555	
2717	0	32390	37536	32829	38207	37010	
2718	0	32397	37236	32758	33675	36698	
2719	0	32808	36089	32633	29316	41540	
2720	0	32804	35022	32625	27890	41596	
2721	0	32853	34082	32670	28932	45528	
2722	0	32970	31874	32656	31904	38173	
2723	0	32786	31239	32612	34374	25478	
2724	0	32530	32432	32626	36649	19182	
2725	0	32930	32595	32733	38369	8649	
2726	0	33134	31410	32774	37855	17778	
2727	0	33038	30292	32800	35192	39084	
2728	0	32846	30587	32729	30642	42119	
2729	0	32495	32865	32700	28026	30441	
2730	0	32360	36487	32743	27037	25619	
2731	0	32464	38368	32760	29312	34328	
2732	0	32868	36537	32775	30717	41339	
2733	0	32905	32692	32848	32910	44822	
2734	0	32775	27934	32836	36398	48464	
2735	0	32725	25179	32792	36493	49671	
2736	0	32762	25139	32689	35224	41555	
2737	0	32846	27480	32648	32970	27528	
2738	0	32966	30618	32655	29200	19794	
2739	0	32974	32661	32675	29840	20791	
2740	0	33107	33663	32702	32067	25161	
2741	0	32981	33455	32658	34003	24822	
2742	0	32738	33571	32640	32228	33395	
2743	0	32720	33709	32628	29484	48436	
2744	0	32630	33951	32660	28172	43467	
2745	0	32620	35136	32620	29778	32067	
2746	0	32690	34536	32626	33560	19440	
2747	0	32650	33943	32652	36676	23924	
2748	0	32436	34210	32595	39782	33856	
2749	0	32535	34372	32708	39051	45095	
2750	0	32701	34631	32758	38371	38311	
2751	0	33045	34151	32805	35445	24027	
2752	0	33072	33377	32740	28327	19407	
2753	0	32978	32787	32632	25742	17725	
2754	0	32960	32687	32724	25627	18258	
2755	0	32766	32997	32666	27684	22064	
2756	0	32698	34585	32686	32377	30415	
2757	0	32660	35902	32762	35454	35378	
2758	0	32463	37564	32839	35010	36882	
2759	0	32352	38703	32860	35136	38195	
2760	0	32406	36674	32873	34887	39138	
2761	0	32492	33799	32820	35309	37351	
2762	0	32824	29527	32705	35466	40014	
2763	0	32688	26544	32484	34187	48004	
2764	0	32432	26055	32480	32370	45482	
2765	0	32704	27214	32656	31503	41119	
2766	0	32995	28462	32694	30761	40299	
2767	0	33089	29793	32731	29298	40071	
2768	0	33088	31472	32696	28650	37775	
2769	0	32722	32784	32756	30702	46471	
2770	0	32690	32357	32758	35288	42952	
2771	0	32955	30369	32749	39943	32033	
2772	0	32936	29801	32685	40254	26924	
2773	0	33040	30788	32704	35783	13604	
2774	0	33056	31815	32698	28864	8608	
2775	0	33033	32918	32711	26666	7903	
2776	0	32848	33381	32711	27806	7895	
2777	0	32831	34082	32741	31272	19330	
2778	0	32826	34784	32760	34388	31693	
2779	0	32940	35446	32809	35145	39227	
2780	0	32732	36632	32818	32936	48356	
2781	0	32740	37295	32728	31932	52935	
2782	0	32740	37402	32735	30167	48995	
2783	0	32613	36133	32775	31106	40602	
2784	0	32452	35653	32818	32870	39623	
2785	0	32514	36155	32881	34791	37703	
2786	0	32541	37119	32904	38058	30148	
2787	0	32421	37552	32889	39175	28991	
2788	0	32150	35768	32822	36722	23099	
2789	0	32302	33532	32812	33666	10131	
2790	0	32686	31648	32744	30452	12200	
2791	0	32916	28696	32684	28414	31502	
2792	0	32905	25563	32504	32800	36914	
2793	0	33046	24071	32319	31385	39380	
2794	0	33049	24226	32330	28224	40374	
2795	0	33094	25894	32508	28074	43928	
2796	0	33304	26712	32752	28585	45631	
2797	0	33458	28708	32876	30123	45010	
2798	0	33177	32377	32868	31842	39930	
2799	0	32839	35094	32793	32760	33351	
2800	0	32720	35567	32775	34087	36240	
2801	0	32799	35131	32847	32999	33974	
2802	0	32812	33764	32837	32740	24268	
2803	0	32640	31857	32773	32792	15640	
2804	0	32542	31623	32795	31789	15421	
2805	0	32536	32589	32775	32451	31751	
2806	0	32506	33629	32912	35082	33617	
2807	0	32388	34678	32856	37376	38772	
2808	0	32584	35335	32792	39148	30304	
2809	0	32629	35463	32589	38499	25293	
2810	0	32813	35312	32579	38397	25499	
2811	0	32736	35359	32665	37513	36539	
2812	0	32656	33382	32774	32898	40720	
2813	0	32669	30290	32835	28516	44853	
2814	0	32912	27976	32804	27465	36246	
2815	0	33232	28201	32767	29575	32354	
2816	0	33296	30579	32795	32333	35523	
2817	0	33140	33034	32663	32368	21360	
2818	0	32852	34307	32669	30720	33824	
2819	0	32772	35152	32711	31239	38676	
2820	0	32725	35193	32656	30523	36737	
2821	0	32804	37015	32584	31274	32202	
2822	0	32824	38387	32741	32640	25689	
2823	0	32738	37824	32733	32982	30486	
2824	0	32566	37778	32787	32099	35979	
2825	0	32753	36416	32811	32083	41678	
2826	0	32674	33559	32680	32658	40763	
2827	0	32868	29376	32641	34495	34064	
2828	0	33080	27415	32607	34494	31675	
2829	0	32885	27933	32681	35296	35127	
2830	0	32672	29056	32681	34210	28437	
2831	0	32706	29864	32766	33042	34528	
2832	0	32922	30800	32769	32226	39527	
2833	0	32792	31644	32775	29626	30990	
2834	0	32608	31170	32784	28781	11760	
2835	0	32374	31461	32754	30028	15204	
2836	0	32434	31305	32775	33634	38873	
2837	0	32436	30912	32755	34230	45405	
2838	0	32592	31330	32744	33118	40030	
2839	0	32626	31309	32706	33102	32350	
2840	0	32696	30229	32822	33249	20696	
2841	0	32674	28918	32848	33533	9168	
2842	0	32644	29494	32818	33453	16966	
2843	0	32800	31512	32726	34232	36584	
2844	0	32886	35076	32648	35931	44111	
2845	0	32914	36906	32720	37597	44331	
2846	0	32921	37415	32803	35602	43015	
2847	0	32976	36199	32804	31853	43431	
2848	0	32756	35335	32781	29659	37507	
2849	0	32658	34471	32731	28179	35033	
2850	0	32928	34237	32762	29976	29275	
2851	0	33008	34281	32734	32082	21805	
2852	0	32900	34563	32713	33630	28122	
2853	0	32741	34514	32758	33510	36567	
2854	0	32541	35019	32696	31915	42137	
2855	0	32581	35216	32690	31701	41023	
2856	0	32272	35748	32726	32183	32973	
2857	0	32252	35224	32741	33319	31149	
2858	0	32422	33445	32725	35036	38151	
2859	0	32902	30087	32818	34130	29184	
2860	0	33074	26986	32775	32436	22775	
2861	0	33149	24611	32775	33161	23935	
2862	0	33232	24877	32653	33963	31071	
2863	0	33164	26830	32623	32723	34413	
2864	0	33193	28327	32699	31681	34983	
2865	0	32796	30541	32754	33373	32870	
2866	0	32317	34098	32804	35196	37508	
2867	0	32444	36472	32843	37353	40000	
2868	0	32418	36871	32805	37872	34212	
2869	0	32537	37340	32792	36068	27968	
2870	0	32743	37304	32815	31782	24490	
2871	0	32979	37619	32704	28776	28730	
2872	0	33241	35763	32712	25616	37503	
2873	0	33176	33179	32669	26532	44740	
2874	0	33170	32588	32614	27924	46422	
2875	0	33242	32786	32583	31057	38338	
2876	0	33286	33496	32704	35048	21376	
2877	0	33136	32972	32803	38518	20151	
2878	0	33118	30526	32837	37613	22437	
2879	0	33422	28308	32820	31592	29145	
2880	0	33071	29202	32877	27213	34776	
2881	0	32521	30915	32825	27698	40840	
2882	0	32351	32919	32741	30911	44891	
2883	0	32111	34163	32699	32263	39611	
2884	0	31978	33778	32690	29275	36246	
2885	0	32080	31997	32720	29782	27732	
2886	0	32248	30429	32749	30623	18090	
2887	0	32504	29666	32803	34624	23997	
2888	0	32712	30703	32837	35917	29667	
2889	0	32736	32734	32708	36770	35562	
2890	0	32866	34468	32678	40229	37415	
2891	0	33008	34688	32627	44520	35755	
2892	0	33024	34189	32583	45310	30071	
2893	0	32903	32319	32588	41818	26537	
2894	0	32825	30175	32562	35847	26375	
2895	0	32994	29580	32606	29776	38614	
2896	0	33100	29662	32612	24518	34502	
2897	0	33007	30674	32562	21545	26906	
2898	0	32930	31970	32598	24831	32263	
2899	0	32818	32317	32641	26497	35907	
2900	0	32806	31988	32626	28196	38653	
2901	0	32533	31253	32661	29493	47619	
2902	0	32512	31585	32646	29549	41774	
2903	0	32617	32312	32620	31768	24936	
2904	0	32702	34283	32621	34507	23290	
2905	0	32596	35468	32673	35719	29515	
2906	0	32377	35997	32802	36907	32002	
2907	0	32464	35669	32843	36290	35747	
2908	0	32808	36454	32807	32008	35367	
2909	0	32926	36669	32767	30306	28831	
2910	0	32832	35872	32662	30744	29488	
2911	0	32904	33962	32438	34346	37482	
2912	0	32876	31831	32391	38483	42215	
2913	0	33000	30238	32504	36209	37056	
2914	0	32847	29265	32512	32576	31830	
2915	0	32841	28262	32645	31081	34799	
2916	0	32794	29369	32785	30672	17604	
2917	0	32737	31863	32760	32113	14574	
2918	0	32724	33974	32738	32736	25213	
2919	0	32673	35260	32836	34683	41504	
2920	0	32696	36256	32893	35091	40616	
2921	0	32598	36265	32852	35280	45669	
2922	0	32568	35022	32774	35672	42898	
2923	0	32664	34311	32808	35744	36733	
2924	0	32738	33402	32698	29831	30200	
2925	0	32893	31919	32681	27861	35840	
2926	0	32853	30720	32680	28808	25128	
2927	0	32698	30061	32686	28611	15776	
2928	0	32522	30200	32651	29518	13374	
2929	0	32586	31456	32805	32720	24694	
2930	0	32996	33644	32848	35624	41621	
2931	0	32726	35359	32834	35048	48740	
2932	0	32644	36953	32730	34746	43294	
2933	0	32709	37594	32790	33639	35417	
2934	0	33120	37200	32865	33897	24554	
2935	0	32961	36130	32818	33620	28292	
2936	0	32812	34303	32763	32489	40507	
2937	0	32680	32003	32733	32817	28006	
2938	0	32704	30105	32797	32684	32731	
2939	0	32696	28726	32799	33469	43259	
2940	0	32808	28658	32876	37100	40374	
2941	0	33040	29362	32700	39525	28966	
2942	0	33060	29359	32642	37986	23773	
2943	0	32964	28206	32732	33536	19431	
2944	0	32824	27015	32741	31476	21275	
2945	0	33064	27504	32754	30702	33360	
2946	0	32896	29449	32775	27786	42456	
2947	0	32792	32514	32775	26950	43069	
2948	0	32832	35803	32693	27739	42190	
2949	0	32795	38590	32754	30361	41571	
2950	0	32612	39000	32739	31336	30176	
2951	0	32720	37146	32681	32696	26814	
2952	0	32740	35050	32647	32818	25989	
2953	0	32642	32400	32667	33175	27852	
2954	0	32578	30409	32815	33016	33479	
2955	0	32528	29890	32823	32731	33585	
2956	0	32754	31141	32772	32032	41623	
2957	0	33093	34943	32743	32023	44112	
2958	0	32865	38054	32763	32497	35335	
2959	0	32481	37685	32775	33863	31852	
2960	0	32520	33582	32696	33172	26128	
2961	0	32688	29530	32730	30568	9668	
2962	0	33187	27122	32698	29710	13036	
2963	0	33184	27934	32731	30116	32077	
2964	0	32981	29261	32799	31017	31482	
2965	0	32980	30697	32727	33366	33440	
2966	0	32954	30660	32538	37173	36265	
2967	0	32994	30298	32505	40045	36794	
2968	0	33026	30625	32578	40038	44039	
2969	0	32805	30624	32612	36184	50898	
2970	0	32596	30973	32837	29842	52002	
2971	0	32620	31461	32823	29292	46504	
2972	0	32544	32936	32737	32239	34028	
2973	0	32568	34548	32741	35972	24400	
2974	0	32480	34551	32832	35537	20103	
2975	0	32429	34889	32809	35241	22692	
2976	0	32678	35456	32809	34405	35044	
2977	0	32825	36178	32614	31922	39943	
2978	0	32757	35401	32568	28989	36749	
2979	0	32735	34875	32604	26143	27271	
2980	0	32832	34405	32600	24834	32967	
2981	0	33004	33917	32659	27839	38890	
2982	0	32980	33586	32674	29441	24532	
2983	0	32850	31900	32656	32408	29296	
2984	0	32566	29923	32589	34438	44067	
2985	0	32696	26751	32564	36184	19952	
2986	0	32781	25553	32619	35942	13054	
2987	0	32820	27544	32775	33536	31301	
2988	0	32888	31215	32818	34502	38968	
2989	0	32792	34845	32875	37346	36093	
2990	0	32988	36860	32774	41060	26618	
2991	0	32782	38096	32726	41380	18108	
2992	0	32775	39148	32772	35952	32841	
2993	0	32938	40578	32739	27212	42714	
2994	0	32552	39635	32775	23780	34990	
2995	0	32404	37196	32745	25382	16921	
2996	0	32336	34019	32640	31394	22121	
2997	0	32417	31380	32740	37068	38632	
2998	0	32600	29541	32796	40389	52479	
2999	0	32838	27874	32756	38636	54466	
3000	0	33340	25706	32792	32588	50768	
3001	0	33377	24520	32805	26532	29489	
3002	0	33298	24799	32812	26763	24153	
3003	0	33238	27171	32818	28038	30903	
3004	0	32972	29378	32813	31913	30428	
3005	0	32755	31531	32725	36099	30255	
3006	0	32624	32540	32800	38249	35351	
3007	0	32724	32759	32799	37359	39921	
3008	0	32586	33629	32677	32145	39845	
3009	0	32566	35298	32575	29078	33185	
3010	0	32549	37126	32592	29729	14564	
3011	0	32541	37852	32674	29625	6843	
3012	0	32562	37671	32762	31110	27701	
3013	0	32688	35682	32690	33353	38022	
3014	0	32902	32988	32572	32915	42727	
3015	0	32906	30935	32547	30703	42598	
3016	0	32614	30925	32615	31565	38699	
3017	0	32448	31866	32653	31695	38077	
3018	0	32652	32135	32707	31285	41967	
3019	0	32666	32745	32713	32606	33850	
3020	0	32715	32749	32752	34264	22244	
3021	0	32836	32200	32787	36107	22457	
3022	0	32872	32717	32797	36211	27958	
3023	0	32982	33422	32867	35670	25082	
3024	0	32996	34845	32923	34195	30623	
3025	0	32906	36698	32863	30915	39544	
3026	0	32848	37467	32868	29649	38249	
3027	0	32621	38209	32833	28864	31707	
3028	0	32304	38061	32798	28730	35282	
3029	0	32152	38077	32699	31490	39810	
3030	0	32416	36832	32576	35055	35276	
3031	0	32890	34076	32282	38983	21776	
3032	0	32773	31992	32257	39954	17626	
3033	0	32588	30174	32401	38036	43616	
3034	0	32722	28509	32650	34045	53432	
3035	0	32872	27989	32827	30339	50849	
3036	0	32907	28057	32820	28945	43071	
3037	0	32928	28206	32704	29952	15977	
3038	0	32962	29087	32695	31261	6760	
3039	0	32842	29530	32839	32402	20294	
3040	0	32646	30569	32876	33287	26482	
3041	0	32618	32822	32830	31098	22778	
3042	0	32553	34534	32794	28918	28801	
3043	0	32804	35642	32742	30108	39162	
3044	0	33059	34778	32680	33663	46968	
3045	0	33154	32082	32774	38905	46380	
3046	0	33090	27790	32839	41248	43263	
3047	0	33140	25696	32882	35669	38186	
3048	0	33048	27884	32815	30820	31863	
3049	0	33061	29383	32821	29012	29852	
3050	0	32957	29980	32877	31347	39868	
3051	0	32856	31714	32817	34123	36149	
3052	0	32690	35232	32897	35234	30484	
3053	0	32544	38672	32861	35762	23788	
3054	0	32624	40224	32867	34427	23139	
3055	0	32584	39832	32833	29816	25234	
3056	0	32672	37951	32761	25601	18194	
3057	0	32722	35271	32731	26378	21708	
3058	0	32616	33296	32766	30356	37605	
3059	0	32505	31145	32582	34875	45885	
3060	0	32648	29876	32531	37479	40950	
3061	0	32536	29739	32535	36811	35197	
3062	0	32724	29205	32552	31881	32256	
3063	0	33082	29038	32613	29004	24089	
3064	0	33064	31132	32610	27288	26782	
3065	0	32968	32036	32509	29140	38118	
3066	0	32788	30942	32530	33337	45405	
3067	0	32804	31421	32572	34958	47683	
3068	0	32815	31516	32602	34994	43360	
3069	0	32725	31405	32667	36299	39820	
3070	0	32707	32391	32605	35847	41031	
3071	0	32736	31239	32542	33566	38310	
3072	0	32930	30881	32564	30256	18252	
3073	0	33113	30891	32623	31813	13225	
3074	0	33089	29826	32702	31300	13864	
3075	0	32848	28862	32540	30584	23449	
3076	0	32789	29715	32609	30611	34677	
3077	0	32775	32824	32666	32250	30523	
3078	0	32710	36137	32688	33742	26835	
3079	0	32606	37611	32758	35582	25250	
3080	0	32508	36387	32801	35833	34803	
3081	0	32525	35189	32792	33988	44425	
3082	0	32635	33457	32775	31903	45575	
3083	0	32701	31529	32698	32805	47440	
3084	0	32817	30256	32687	32610	47087	
3085	0	32748	29888	32735	31512	38471	
3086	0	32858	30327	32719	31047	35414	
3087	0	32934	32357	32788	32912	33181	
3088	0	32976	35490	32775	34456	22653	
3089	0	32876	37771	32722	36504	28756	
3090	0	32697	38802	32736	38867	36008	
3091	0	32370	38373	32818	37264	30981	
3092	0	32453	38676	32809	34950	19298	
3093	0	32628	39610	32883	29996	23901	
3094	0	32817	38457	32824	26434	18461	
3095	0	32802	35682	32730	26818	7936	
3096	0	32818	32548	32664	30438	20212	
3097	0	32978	29942	32720	33732	50241	
3098	0	33094	29059	32743	35527	53563	
3099	0	32805	28828	32610	35401	52498	
3100	0	32346	29352	32672	34218	40056	
3101	0	32300	29784	32616	30244	35864	
3102	0	32386	29687	32696	28845	34526	
3103	0	32832	29935	32747	31814	33799	
3104	0	33095	29712	32723	33634	30911	
3105	0	33249	30633	32772	34734	18699	
3106	0	33244	33743	32764	34450	18231	
3107	0	33005	36908	32775	32194	23817	
3108	0	32794	37562	32729	31396	28993	
3109	0	32797	37842	32835	31305	35395	
3110	0	33060	36612	32768	29801	41013	
3111	0	32851	35335	32775	27453	46224	
3112	0	32752	34113	32665	28742	50695	
3113	0	32538	32640	32633	32818	46749	
3114	0	32513	30534	32781	38672	39495	
3115	0	32688	27308	32848	43654	26784	
3116	0	32576	25065	32755	42854	21933	
3117	0	32668	23786	32846	37457	24488	
3118	0	33022	24338	32832	30675	27984	
3119	0	33336	27244	32825	27019	33522	
3120	0	33160	29724	32791	29534	32239	
3121	0	32835	31890	32811	30663	34663	
3122	0	32857	33283	32795	30759	34299	
3123	0	32916	35368	32775	34794	29787	
3124	0	33006	36779	32718	33620	23373	
3125	0	33098	37511	32679	30261	22185	
3126	0	32957	38157	32589	25060	26962	
3127	0	32845	36852	32541	24651	29733	
3128	0	32966	35271	32498	31132	31728	
3129	0	32997	31441	32402	35905	37119	
3130	0	33124	27516	32562	37194	42636	
3131	0	32987	25917	32607	36719	43346	
3132	0	33208	27207	32687	35006	40148	
3133	0	33141	30062	32685	33922	45952	
3134	0	32948	33234	32661	32967	49271	
3135	0	32923	35369	32676	32344	37053	
3136	0	32910	37176	32758	32422	25656	
3137	0	32801	36786	32742	31716	15816	
3138	0	32768	36842	32749	31171	16184	
3139	0	32965	35538	32736	31140	25607	
3140	0	32775	34611	32652	31967	33165	
3141	0	32472	33392	32661	33869	27874	
3142	0	32209	32575	32487	34935	21327	
3143	0	32117	32297	32602	34873	26716	
3144	0	32248	31943	32803	34385	38047	
3145	0	32250	31273	32825	34195	28743	
3146	0	32234	30821	32811	32495	30636	
3147	0	32113	31494	32741	30448	38647	
3148	0	32233	34125	32787	30647	44512	
3149	0	32209	35909	32886	31640	45307	
3150	0	32179	35984	32860	31277	47167	
3151	0	32222	35267	32819	33373	40271	
3152	0	32134	36206	32815	35206	30385	
3153	0	32108	36312	32898	37115	21511	
3154	0	32272	35787	32942	34656	24203	
3155	0	32240	33238	32832	31303	32291	
3156	0	32354	30382	32732	30283	31431	
3157	0	32602	28407	32655	30487	29735	
3158	0	32788	28484	32634	31923	33319	
3159	0	32780	28577	32551	34455	36043	
3160	0	32853	27270	32579	36518	40046	
3161	0	33238	25625	32649	37617	46504	
3162	0	33736	25231	32540	36390	38226	
3163	0	33764	27400	32607	33506	29644	
3164	0	33510	30400	32641	31259	27616	
3165	0	33090	33690	32549	29028	18114	
3166	0	32936	35175	32551	25795	14117	
3167	0	32855	35433	32522	26700	28500	
3168	0	32916	36121	32663	30429	37011	
3169	0	32942	36536	32601	33688	40480	
3170	0	32861	35416	32656	36915	45612	
3171	0	32413	33884	32689	36449	44271	
